gsr_mean,gsr_std,gsr_slope,ecg_mean,ecg_std,ecg_max,emg_trap_mean,emg_trap_std,emg_corr_mean,emg_corr_std,emg_corr_max,emg_zyg_mean,emg_zyg_std,gsr_shannon,ecg_shannon,emg_corr_shannon,emg_zyg_shannon,gsr_sim_corr,gsr_sim_mi,ecg_sim_corr,ecg_sim_mi,emg_trap_sim_corr,emg_trap_sim_mi,emg_corr_sim_corr,emg_corr_sim_mi,emg_zyg_sim_corr,emg_zyg_sim_mi,gsr_x_ecg,emg_asymmetry,hrv_pnn50,hrv_rmssd,hrv_sdnn,hrv_meannn,hrv_lf_hf_ratio,parasympathetic_tone
0.010522037557604825,0.03613974381017089,0.05996412977657439,-0.00127173352245864,0.010277782054950576,0.03044786929546777,-0.008370148140585239,-0.013148015345954575,0.0,0.0,0.0,0.0,0.0,-0.007565589972585532,0.009919550989039957,0.0,0.0,0.020725531232477123,-0.0007159343277560121,0.0067359557442427335,0.004351263122115692,0.0002761762560894693,-0.0015269899026136803,0.0,0.0,0.0,0.0,-0.0013824303620591505,-0.002855910994437433,-0.001480369842718001,0.001620334691873517,0.0024829508555055937,0.006212541330661751,0.0,0.00018538481733045237
-0.007411404691364504,0.014690234131556077,-0.027291201982393157,-0.0036266763212527697,-0.007987811202666275,0.03774441093751457,-0.00863160284966054,-0.011465647005967094,0.0,0.0,0.0,0.0,0.0,-0.009027411790835818,-0.019242727290378844,0.0,0.0,0.015106365028565128,-0.002867808766150885,0.0003968833458602361,0.0007586732091684402,0.0011781060196425044,-0.001390078925301546,0.0,0.0,0.0,0.0,-0.00347521843116916,-0.00231025373208791,-0.0017346639896847623,0.000902686670151351,0.0035365755264825816,-0.01047023586830213,0.0,0.0005999013250740652
-0.0072200085972578985,0.036933027814051805,0.05888703521925962,-0.0011398375593341217,0.008393950353418923,0.02753513512851489,-0.006676020938868757,-0.010964927125362574,0.0,0.0,0.0,0.0,0.0,0.003690492366690636,-0.010881007439171204,0.0,0.0,0.024486482944335877,-0.0038055524802617347,-0.007582421054735091,0.0011937596331405371,0.0009357150450080928,-0.001572375779967059,0.0,0.0,0.0,0.0,-0.0014863890398376038,-0.004261693437833852,0.004048960919793468,0.003780496386722418,0.0053289824025162975,-0.011152317782314099,0.0,0.003381713104872615
-0.009915709369770398,0.01759195823277725,0.028747577825916117,0.0020560060419241217,0.0020410627444859227,0.008530397499711934,-0.006585900940049682,-0.009361793183427017,0.0,0.0,0.0,0.0,0.0,0.02367866950988988,-0.024666020538505667,0.0,0.0,0.026377113912570135,0.0011142815595667726,0.002737302008013059,0.0014992321100781407,0.00013027840589349517,-0.0016763519099163334,0.0,0.0,0.0,0.0,0.0015572559248707425,-0.0043378775227671355,-0.0004988329176859054,9.153715302912415e-05,0.0032290952575226312,-0.009076247782894623,0.0,0.001245190576769722
-0.012424658086479903,-0.014213968044021995,-0.03415043943647581,-0.00410137464659577,0.00893930218054034,0.006411424462695006,-0.007022766590295445,-0.01119634586680479,0.0,0.0,0.0,0.0,0.0,0.021675696706623834,0.011729825992419023,0.0,0.0,0.002562192792208608,0.014361772325593478,-0.0008273538506888234,-0.0008963296171369697,0.00016098388482132847,0.0005216460219247775,0.0,0.0,0.0,0.0,-0.004124731614652497,-0.0022101015984203787,-2.4782693133055684e-06,0.0027988972921512045,0.005444044318817423,0.0013936280411671004,0.0,0.0004681345895526264
-0.002033723007937842,-0.018774099547078173,-0.03687764821143087,-0.0018238358989260597,0.005390569161524492,0.002443850086646805,0.010744852686302804,0.012419718700449852,0.0,0.0,0.0,0.0,0.0,-0.02204216089421739,0.014164212159288465,0.0,0.0,0.00486498240549844,-0.0012733903736439778,-0.0004389581660805066,0.0011684676875229753,0.0005079537878858012,0.004446385980538317,0.0,0.0,0.0,0.0,-0.002888629730381992,0.007278958775145513,-0.0020029117221189233,-0.0011702552901534024,0.003575741108493804,0.00031088635210357234,0.0,-0.0010246668646936386
-0.007715451184376606,-0.0159747178281175,-0.033088422992186554,0.002486842273702901,-0.007036601746450376,0.015968690807975458,-0.007040246769123516,-0.009456963253756197,0.0,0.0,0.0,0.0,0.0,-0.008063517634411148,-0.020363385298854054,0.0,0.0,-0.02056839578852721,0.0007258218959576157,0.0016964297063469564,0.0016842610461867947,0.0009490032215240436,-0.003830858425087257,0.0,0.0,0.0,0.0,0.0015942068106127817,-0.008870731375148896,-0.0005672153429299625,0.0014476345466876276,-0.0019427873528516015,-0.007076677043831877,0.0,-0.0001131743898659168
-0.007478362442624897,-0.015944648502260447,-0.03420523218898335,0.0005459350092582838,0.004897449711798851,-0.015982972167628194,-0.0068501974610190915,-0.009270613418986958,0.0,0.0,0.0,0.0,0.0,0.007971946100863006,-0.0007599573780528833,0.0,0.0,-0.026708919137584403,-0.00514627015464886,4.884292232242298e-05,0.001370419553896706,0.0005796354777404055,0.0018372294644945224,0.0,0.0,0.0,0.0,-0.0018774889172699643,-0.003773783289304524,-0.0017264879469786022,0.0008890952635372358,0.004016666759698373,0.003626958554308029,0.0,0.00012847510397028333
-0.00624988377139194,-0.036287307375218764,-0.030322760681581042,-0.003639109737039252,0.0057626417876345745,-0.016470008574040094,-0.007323673695026746,-0.009769891214097583,0.0,0.0,0.0,0.0,0.0,-0.013940053486437353,-0.021675878024149303,0.0,0.0,-0.02174226138876396,0.00032604422045881646,0.00044883884013172137,-0.002025486215840301,0.00010534396853744967,-0.0016185119073743415,0.0,0.0,0.0,0.0,-0.005160653463322768,-0.006565961041189728,-0.0026104154856245805,-0.004843133712808219,-0.006624296160365077,0.003922179119054089,0.0,-0.0027413085354734564
-0.006457071873567456,-0.03465111904717297,-0.03050521349465531,0.001991008784293013,0.003980459785079339,-0.017467165592478167,-0.00747274052558044,-0.008882072788372553,0.0,0.0,0.0,0.0,0.0,-0.0006856066131400353,-0.021999622594167705,0.0,0.0,-0.013092723931475382,0.0014336800821165864,0.00021427529642184206,-0.0013265557187579677,0.00020016404702183173,-0.001984211523800222,0.0,0.0,0.0,0.0,0.0025686619779383166,-0.009886334021833422,-0.002286059595970092,-0.0019144035756923643,-0.004972572740589447,-0.004690976867197264,0.0,-0.0006551429530140351
0.013505812382380118,0.017288161858357434,-0.04012644317232359,-0.0029885020539611945,0.005814223997170771,0.005758632941831006,-0.006651267556818367,-0.011503874185766335,0.0,0.0,0.0,0.0,0.0,0.006183566707820944,0.0017555926777803178,0.0,0.0,-0.02427512526455025,0.002067344213662135,0.0009534022605921969,0.001245294398919186,0.0003654534809858371,-0.0006884191611485848,0.0,0.0,0.0,0.0,-0.0034306785046816983,-0.011369865703326903,0.00044480668701050156,0.0013392194461697964,0.002502206784612456,0.003965525550540598,0.0,-1.2003772128957417e-05
0.009174477269364868,-0.01474759570189449,-0.030812268930784887,-0.0020247395736790164,0.010453411847058698,0.024017581597975162,-0.007294048764192418,-0.005657405037790729,0.0,0.0,0.0,0.0,0.0,0.005716736223678774,0.0145155255509796,0.0,0.0,-0.023047805276339067,0.0018260485226895627,-0.0014949979625593784,0.00186977597139374,0.0006699770096184045,-0.001182864483093957,0.0,0.0,0.0,0.0,-0.002630402553632186,0.004562260047202641,-0.0026076470683453245,-0.002619518208320193,-0.008200743043661685,-0.007460384383404994,0.0,-0.0013493147887031875
-0.0003881582293512453,0.003750487747054405,-0.03817195602129557,0.0016469821077176488,-0.016873883376858877,-0.017398744592007288,0.014429947547558374,0.013448201566945421,0.0,0.0,0.0,0.0,0.0,-0.028837837193327946,0.0010517243352631193,0.0,0.0,-0.028634305167135016,-0.016803875064233184,3.729542637398027e-05,0.003927381423026188,0.0008343842110443865,0.0005791395550554454,0.0,0.0,0.0,0.0,0.0018863397225940574,0.0061005440347661165,-0.0021537740273384577,-0.0013505470496941905,-0.0035203663828915015,0.005946872402949076,0.0,-0.002452178727879771
-0.004493478313734743,-0.033381052993564815,-0.03272234685327248,-0.0020841319972053373,-0.013681558852308526,-0.020847414022618353,0.011000556839776384,0.010682137011090807,0.0,0.0,0.0,0.0,0.0,-0.02664800127593918,0.012124250984766891,0.0,0.0,-0.021818608266290028,-0.0028262819968229926,3.827878491043367e-05,0.0013313252991354525,0.0003982097481958575,-0.0012557318895760625,0.0,0.0,0.0,0.0,-0.0039968771662851595,0.005622987907807482,-0.00247381058573048,-0.0017426072764800177,0.005295055700714395,0.0050825407693904055,0.0,-0.0009536806780827936
-0.005952158494084893,-0.012263802244001745,-0.012931518380824977,-0.0026470597304924797,-0.014715206614871978,-0.020321347602638144,0.0022091564460204128,0.011647541547616816,0.0,0.0,0.0,0.0,0.0,0.006599844696410465,0.008232534476527813,0.0,0.0,0.02499405366035682,-0.003616390580141145,0.0031709572130433255,0.0006835632335458559,0.0005877327721486809,-0.0008052551806708676,0.0,0.0,0.0,0.0,-0.0033382757652227644,0.004261641766501078,-0.0020089399805243106,-0.0007120772884085763,-0.005921083987670508,-0.008739632256822715,0.0,-0.0004894943577721228
-0.00597035396697457,-0.0353200441732413,-0.030843776657105502,-0.0039291452981631315,-0.008220691493780853,-0.020288023184221897,-0.007474772399334953,-0.009773885355657633,0.0,0.0,0.0,0.0,0.0,-0.02098141042041064,-0.015038877314441493,0.0,0.0,-0.007891241979960023,0.006915730539576308,0.000928573799845143,0.0011688364460064127,0.0006491516498985067,-0.0008531837472458474,0.0,0.0,0.0,0.0,-0.00440724028418379,-0.002784454999459389,-0.003053117175823481,0.0010284209478969286,0.006178013050024005,-0.0018106460516528647,0.0,0.0003574664570563957
-0.007320149904159027,-0.035407988651455016,-0.03322609999641185,-0.002936631923186681,-0.0008339297459832583,-0.02083133948516703,0.00949951759144723,0.015309955373306134,0.0,0.0,0.0,0.0,0.0,-0.009816733096660618,-0.006740994269899499,0.0,0.0,-0.024880028742268523,0.002114889166606466,0.0005144169700533581,-0.0019410469963358442,0.0007759120726540851,0.0028595486141085803,0.0,0.0,0.0,0.0,-0.004091443546870908,0.005421078382359294,-0.0023073121348141656,-0.0014043944319293289,-0.0036435374220179567,0.004416562353742128,0.0,-0.0014746769592712426
0.013156172967346759,-0.020719703357105164,-0.03050256670575639,-0.003389905386156852,-0.008655581851235144,-0.020184007562504366,-0.0003435661050815261,0.0021910907679933193,0.0,0.0,0.0,0.0,0.0,-0.02416766235339235,0.01613983776508149,0.0,0.0,-0.022857968832451277,-0.006983299309624506,3.6657146501919874e-05,-0.008477436695851484,0.0005475880092864122,-0.0009332888994918833,0.0,0.0,0.0,0.0,-0.0035503939443831648,0.002975503743285306,-0.0026797182556173795,-0.001853292780312421,-0.0030477694311319237,0.005248072648849052,0.0,-0.0016016096520414553
0.009045914029716245,-0.03965534643987392,-0.03201906464861243,0.005451866389031753,0.00399399814537307,-0.015377462095070299,-0.007162444284107706,-0.008884537597143785,0.0,0.0,0.0,0.0,0.0,-0.022265934435778525,0.011118953705508128,0.0,0.0,-0.025441939439380317,-0.014541928353880433,0.0016372061529850942,0.0013120718434686135,-0.0012541559244329304,0.002639197772648448,0.0,0.0,0.0,0.0,0.00591118144737113,-0.008987308540765923,-0.0031445471490762203,-0.004873796184819163,-0.009221040397237049,0.007448112221723467,0.0,-0.0020544123482110987
0.013302987356492888,-0.019749304026906386,-0.03255134386061168,-0.0035995841141524113,-0.008265561332307892,-0.022646526881401723,0.008962675194690068,0.010747161532641922,0.0,0.0,0.0,0.0,0.0,-0.023649117503212833,-0.015134400515386974,0.0,0.0,-0.0218931719638523,-0.008548211847740766,0.0008076176474221642,0.0010286850278792131,-2.3615353009860265e-05,-0.0003889680501986525,0.0,0.0,0.0,0.0,-0.004570321663475386,0.004597305942439216,-0.0018352338543886257,0.00021206375207200102,0.007373352331733374,-0.003312857784895974,0.0,0.0003892370387389542
-0.010612462077881078,0.03553029758753411,0.05997195009143238,0.0013639212970153274,0.0066741320856056885,0.01134974287072664,-0.007312733678500312,-0.00961902785421332,0.0,0.0,0.0,0.0,0.0,0.006349101026952907,-0.014195929040739921,0.0,0.0,0.02392725150529315,0.0017799857898253505,9.537871606483366e-06,-0.004459299570572178,0.0003520316917602031,-0.0003788115586287215,0.0,0.0,0.0,0.0,0.0011559779600881191,-0.0020471951301518744,-0.0007328015718029597,0.0004489432550840858,0.0041901056371970065,-0.002833837920784611,0.0,-0.0011341146597926828
-0.00831311522028619,0.03205959367517211,0.0542648760800026,-0.002574867296407878,-0.016562093150549562,0.013509939049565321,-0.005827432054746447,-0.011108097652767693,0.0,0.0,0.0,0.0,0.0,0.006864189650706373,0.005849986009401523,0.0,0.0,0.02747685139092176,0.0007771748497639958,0.004828221464491325,0.0029644286475080236,0.00015688148662242572,-0.000706883256388783,0.0,0.0,0.0,0.0,-0.0019755779118098716,-0.002653286353487249,-0.00043627277728632723,0.00119135905958668,-0.0020001486098858955,-0.0009648687809639118,0.0,0.00012824335621638712
-0.00614030649927714,0.030628871819880037,0.055374856525372884,0.0007920987436897181,-0.00855896347188381,-0.026003285174257793,-0.007858319652681058,-0.01067228902027798,0.0,0.0,0.0,0.0,0.0,0.014084898784043553,0.013708510146168933,0.0,0.0,0.021767957177335293,0.0020129590753134286,0.00021299591118899682,-0.004612114905538347,0.00011730380882931045,0.0023706194322451898,0.0,0.0,0.0,0.0,-0.001096923372287741,-0.004779050281453073,-0.0011795221810396142,0.0003694478537929001,0.001990832631971782,0.003600631701984498,0.0,-1.8195613425297785e-05
0.0006251139732823685,0.03419726125297583,0.05853175670864734,-0.0014155373779018827,-0.009461357701261486,0.03229005840933856,-0.007038324890874413,0.004670407361847411,0.0,0.0,0.0,0.0,0.0,0.0059221959962983284,0.011574547126967993,0.0,0.0,0.02355440868255123,-2.361657822762474e-05,-0.0006858507861159916,-0.0032367170427532086,-0.002648475593049395,-0.0012340899273794047,0.0,0.0,0.0,0.0,-0.0019434483356042698,0.002830693691363851,-0.0009278026031351408,0.000625498817307879,0.0032923977182727966,0.002030517020782515,0.0,0.0007296933416587197
-0.009387213004698578,0.023461332722019772,0.03922839593135335,0.0023852353782092025,0.0030752373811502288,0.0065776864049671615,-0.006215729854508508,-0.010977734255199599,0.0,0.0,0.0,0.0,0.0,0.022177098688595916,0.014201322038408777,0.0,0.0,0.0209450290215483,0.006018903695418917,0.0006934836001681751,-0.0024840408134785916,0.0005674995319448133,-0.0004865739002164123,0.0,0.0,0.0,0.0,0.0024365785959369313,-0.003005488186061633,0.005492024975221477,0.004660353332983793,0.004854068355230855,0.00542177780219294,0.0,0.0012596588519290146
0.009157375568154914,0.03632295352857292,0.04963069489787361,-0.0014159505384291572,0.007250787369276004,0.017045168900555678,0.011808073538076004,0.010790586611424825,0.0,0.0,0.0,0.0,0.0,0.015382730057977453,0.013343643774660912,0.0,0.0,0.014443966434734423,0.000945775110328507,0.005072777717351246,-0.01015407529684697,0.0002732565335369534,-0.0003082937897528609,0.0,0.0,0.0,0.0,-0.0019516682797150319,0.005975324440415062,-0.0007870006891766053,0.0013416958758622887,0.0036558464810194035,0.0016529395924390088,0.0,0.0006320199510099652
0.011738945184047472,0.020803758715197677,-0.04367212901584995,0.002764825245877535,-0.0067135978780566,-0.025417638155981637,0.01096209938905631,0.012269518457405117,0.0,0.0,0.0,0.0,0.0,-0.026361355812373127,-0.024343607323957295,0.0,0.0,-0.025180585453358186,-0.015661997350307925,-0.0002534687930087044,-0.002262264638033408,0.0002820233581222418,-0.0010282299181148492,0.0,0.0,0.0,0.0,0.00229640364886819,0.0037575048337631636,-0.0021648256563230237,-0.00036267143700569786,-0.004981238291927992,-0.009422906132113523,0.0,-0.0008474801375474016
0.0012410754412182728,0.027259094799792657,0.026424473451482727,0.005080971655302978,0.011410695534179107,0.029980321430292473,0.01024587917615242,0.012104027257708412,0.0,0.0,0.0,0.0,0.0,0.022635565137633457,0.008101395271347863,0.0,0.0,0.009328989374195726,0.012915549485351924,-0.0004564276639601776,0.0020113438846715475,-0.004645534564698795,-0.0013899839459506032,0.0,0.0,0.0,0.0,0.004942929206373701,0.008263022414158137,-0.00061580409771326,0.002541001164192375,0.00645845450638745,0.005624119491570924,0.0,-0.0008316641151751426
-0.005619296132116157,0.03447893022405418,0.05232423797325439,0.0006709919658255344,0.008268369033185492,0.013069640547659696,-0.0075616655265776656,-0.012107185377196813,0.0,0.0,0.0,0.0,0.0,0.01607722042602874,0.011395159235513517,0.0,0.0,0.025103412514268866,0.0011092993351853745,0.00011793395987476764,0.0020656081862799056,0.0003194575595030958,0.003452908112829986,0.0,0.0,0.0,0.0,-0.00040860835604317663,-0.004683559494139656,-0.0013688652256917328,-0.00021814465538103214,-0.00628412585707713,0.0032020814418831692,0.0,1.0035250100160469e-05
-0.007489034102488957,0.03637488003562463,0.058213720955300065,0.001618995745056953,0.00874314239042249,0.0219543248847584,-0.007272127844648239,-0.011646336204026608,0.0,0.0,0.0,0.0,0.0,0.018587942913473928,0.01142905333690731,0.0,0.0,0.02316490103353149,0.001618787553268848,-0.0007768306916206973,0.00457203646842971,0.0004003308608599752,-0.0005840186520607683,0.0,0.0,0.0,0.0,0.001224785187765234,-0.0015385170128191215,-0.00131024741941364,0.001066458760063946,-0.004276087070792594,-0.0034583412497522924,0.0,-0.0014393899469384531
-0.012514403963678415,-0.019570696702928134,-0.032491761115924625,0.006139047598375091,0.00478023711117539,-0.015418144337870223,-0.0035560136352480775,0.0070756848085095445,0.0,0.0,0.0,0.0,0.0,0.026632811836668022,0.015410470116611815,0.0,0.0,-0.018950828376647005,0.01639846814083369,0.0003569085578826033,-0.0005244830879209174,-0.00012037653561167288,0.0028080919467998256,0.0,0.0,0.0,0.0,0.00864994285694285,0.004641400154760218,0.0003567270710166381,0.0015924382340430964,0.010071119342296677,0.006107891567166157,0.0,0.0007300614262590202
0.013948376806026612,-0.017241862608748815,-0.03213914428187982,-0.0029725240999206766,-0.01751706278851929,-0.022587939711715747,0.014533262806401341,0.0165322371010299,0.0,0.0,0.0,0.0,0.0,-0.02809492264540329,0.0007262011806096356,0.0,0.0,-0.025912992813102897,-0.00987801513908206,0.0001752329006521501,0.0015100757770128025,0.0009874200021584374,-0.0012313946626544647,0.0,0.0,0.0,0.0,-0.004470028345509746,0.006813033062541178,-0.002225784974553382,-0.0018301524669569042,-0.006444235250945447,-0.005060819279365265,0.0,-0.0009821347176933917
0.014758502523096427,0.014822687779503792,-0.01882690713339715,-0.0013040534047352545,0.00955027812208518,0.03494602623886476,0.013457732825854036,0.015487041095915702,0.0,0.0,0.0,0.0,0.0,0.011741123937511012,0.014509092468042951,0.0,0.0,0.011253218385433856,0.001101591154690027,0.0006266131976320842,-0.0003145332615917003,0.0005140304808964363,-0.0004895781650053015,0.0,0.0,0.0,0.0,-0.002053995341948855,0.008937890860813548,-0.0013833084251254543,0.0008144470155365033,-0.0031400638969941294,0.006871398911769475,0.0,0.00041102228428629463
-0.009290596052361124,-0.03824353075531109,-0.032878742807777354,-0.0015347323172310986,0.008093060791534563,-0.021855009720267615,0.011762734220352821,0.012522361889276435,0.0,0.0,0.0,0.0,0.0,-0.023417760146074246,0.014771817600854883,0.0,0.0,-0.008501611350374862,0.002122644995213867,0.0030072852718148564,0.0012059567013217017,-0.002576166442657144,0.002263269060508699,0.0,0.0,0.0,0.0,-0.0032086890087225164,0.0074265967640309806,0.0007023580687826612,0.001984681369412736,0.0077538919870838935,0.00590546262317614,0.0,0.0009135607286350126
-0.007180212416386473,0.015486139089091367,0.023693861541708626,-0.0038698389323269747,0.012308125751888834,0.03430644265528296,-0.004921609541762621,-0.004118862524949901,0.0,0.0,0.0,0.0,0.0,0.023048993630832983,-0.013657563572171112,0.0,0.0,0.01779238618661199,0.015032124012334233,-0.0003312651624488719,-0.0032255493577079343,0.00011478644105391744,-0.00042056125156027154,0.0,0.0,0.0,0.0,-0.0030697612022055937,0.005038771062916844,-0.0004462410493888373,0.002221117514153497,0.0038847054950926635,0.003751240512472742,0.0,0.0027480605085893647
7.902027414378646e-05,-0.013294311955596782,-0.017966498149867616,0.00043792727988031474,0.009989985477412831,0.035656277667113344,0.012802619428436201,0.009341451650504944,0.0,0.0,0.0,0.0,0.0,0.02463104507106572,-0.021845486133565028,0.0,0.0,0.01540745694517114,0.015687402901996536,-0.004632000242384374,0.00025751046029848874,0.0009048002567460567,-0.000874595296736681,0.0,0.0,0.0,0.0,-0.0017867884914727927,0.0053621538661331744,-0.00044620736850352506,0.0010266643458412775,0.006482515917346077,0.004503329503816309,0.0,0.0010565131655304553
0.015686238906376167,-0.037138102282363826,-0.033483161685274924,0.0017840199890062044,0.008870657603051333,0.029385176905713677,-0.009069486116185339,-0.008539601961838892,0.0,0.0,0.0,0.0,0.0,-0.004533483041333438,0.012980792615504996,0.0,0.0,0.007867702662048764,0.007147523656028391,-0.00035268483737752233,0.002110496123752151,-0.00014087569247151502,0.0017316472093253234,0.0,0.0,0.0,0.0,0.001279692646414388,-0.0004844538805804915,0.00023755975024896715,0.006060759986613295,0.008161159703785817,0.003591628885816541,0.0,0.003166029995607541
-0.00020692240594913432,-0.03232927943193028,-0.032588903235463845,0.0012872315051463258,-0.015379006574289597,0.042796205767686064,-0.009026324634154094,-0.009758276103365434,0.0,0.0,0.0,0.0,0.0,-0.007848624926508214,-0.01728804929423188,0.0,0.0,0.0031614084978226786,0.006663033673408775,0.0020429187742106083,-0.00736223271339183,-0.0003753901481109722,-0.0007745057392761452,0.0,0.0,0.0,0.0,0.0008007279489024514,-0.0017965118132770193,-0.001434913121418887,-0.0022267710789563135,0.00828154389543333,-0.0035850678482999654,0.0,-0.0019876949990929654
0.011989143547483228,-0.014288709323155702,-0.03501222741362735,-0.0034488418979411357,-0.01764261047994479,-0.02109009762589968,0.00851338236216547,0.008351604485861116,0.0,0.0,0.0,0.0,0.0,-0.027756724187827,0.015989306295147027,0.0,0.0,-0.027428031093844417,-0.01891062194546271,0.0002936977982092223,0.0017196807946013375,0.0003783615596852654,-0.0016348787885037813,0.0,0.0,0.0,0.0,-0.0032714472686937173,0.004479949346388277,0.0008303945373645585,6.64711928348414e-05,0.010003578247741802,0.007299552922127211,0.0,-0.0004250567019934059
0.015011834619968223,-0.023744258119358666,-0.028746166238743962,2.9807664445530315e-05,0.0023029408579029065,0.03582790876497591,0.013387716790682914,0.012360232975941738,0.0,0.0,0.0,0.0,0.0,0.014697847838804075,0.010568157784158767,0.0,0.0,0.01261212289928403,0.0033297368884213276,-0.00762977474489008,0.0013137426758662112,0.0003828064861758985,-0.0015862214746976899,0.0,0.0,0.0,0.0,-0.001176827728195264,0.01014396946842287,-0.0016955754116293761,-0.0020260477882926378,-0.005197918979576775,0.0016586860881673711,0.0,-0.0027314612488071976
-0.010198844623551981,0.04048475452220997,0.06645336306555284,-0.000784534549570964,0.006590220792653147,0.017794094655430057,0.007687349695370469,0.014291967705606987,0.0,0.0,0.0,0.0,0.0,-0.001822169654707305,0.013249432006544552,0.0,0.0,0.0193888502132657,-0.005455035261141034,-0.003059096440068971,0.0021711517497210904,0.0005843744048111538,-0.0012616371550797667,0.0,0.0,0.0,0.0,-0.0011275200658288165,0.002521425339868516,0.00019996775393539201,-0.0008670341683692533,0.0012225402508360252,0.0010550214837192426,0.0,-0.0004560326852005193
-0.012709248239614418,-0.033569444029018736,-0.03539621757111824,0.0032942340335952824,-0.006599768550322299,-0.021963450179413594,0.007791775393414182,0.0037913800942850945,0.0,0.0,0.0,0.0,0.0,-0.001573469392645922,-0.021629112142409628,0.0,0.0,-0.00840464603002047,0.00915418680679336,0.00032772453859815685,0.0013133816057295104,0.00023858853334589027,0.002081890305511897,0.0,0.0,0.0,0.0,0.003284815911102784,0.007662752587706527,0.006245876551587008,-0.00046888488809352687,-0.0039007941087636816,-0.009813818192641125,0.0,0.00047097449641983024
-0.008330911773039032,-0.03511310155675102,-0.03475720662028989,-0.0041904661701593696,-0.004146074271334155,-0.016649070925235283,-0.002936601431382843,-0.004384038176611756,0.0,0.0,0.0,0.0,0.0,-0.023203396828939293,-0.00038863206324302077,0.0,0.0,-0.02303349926486317,-0.009162279279320649,0.0004311807931020961,-0.0017315797955804327,0.0007007759850310474,0.0014285086800918155,0.0,0.0,0.0,0.0,-0.006702737019785911,0.005583312985867164,0.004254761708296399,-0.000667405761431511,-0.0029365703483420673,-0.010352782499617878,0.0,0.0005043130422330009
-0.0130658399408403,-0.01859545708102675,-0.031739432549219584,-0.005546400656363438,-0.007580911530351004,-0.021947177609148102,2.2700535427152366e-05,0.007417529768286951,0.0,0.0,0.0,0.0,0.0,0.0073573127030682394,-0.02516147031400266,0.0,0.0,0.005719267512153454,0.00014197289747026572,0.0019041640820651826,-0.0005241537915472511,0.0003774713955282664,-0.0016027928432513874,0.0,0.0,0.0,0.0,-0.006361519873459743,0.006765722898229145,-0.0013194831206987667,-0.0027068585024750164,-0.0057958540944091,-0.005542996846747437,0.0,-0.0016653752790724502
-0.005833493973377489,-0.013819022962063119,-0.03975546365199066,-0.006105870231459168,-0.009449595068708658,-0.018896765392240503,-0.004830155429637607,-0.00799989140944526,0.0,0.0,0.0,0.0,0.0,-0.026981519841942705,-0.021285364399506724,0.0,0.0,-0.023516865824869105,-0.0058307868506236,0.00035508743225535176,-0.0009866458179644932,-0.0007900785285418392,0.0017343566588136072,0.0,0.0,0.0,0.0,-0.005994704285778735,0.0034281346778036147,-0.002019383930083194,-0.00017437400021705295,0.0029073369478209775,-0.0037157911452009996,0.0,0.00032942713378597636
0.017933027155607163,0.026604726389422226,-0.03574462876803372,-0.0023752731305791423,0.006311469138094695,0.011347131800181492,-0.0030922061522576506,0.0062970431553133555,0.0,0.0,0.0,0.0,0.0,0.004886528711035332,0.01545844793298693,0.0,0.0,0.0029150620076172783,0.0013210330845900091,0.005311469440974438,0.0009861555427897089,0.00047067364418789786,-0.0009132236721926947,0.0,0.0,0.0,0.0,-0.0037998492091221316,0.00713603546056439,0.000394983150656123,0.0008194415847405248,0.003717067299976547,-0.0104910356870528,0.0,0.0005010114829717665
0.0009249629873267466,-0.030617398932323212,-0.03352588012495944,0.0044595652164313975,0.008163942217443682,0.024589449497094303,-0.005421902127487314,0.008153328896342474,0.0,0.0,0.0,0.0,0.0,0.004552761715613564,0.013314716881727971,0.0,0.0,-0.012479876480556963,-0.0007846128909581656,0.0005178036323871582,0.0008790964992058458,0.0005088392517993252,-0.0009137556251324234,0.0,0.0,0.0,0.0,0.0052255315359966345,0.007164340992036096,-0.0014763851450656648,-0.002310828552428631,-0.006311209377467567,0.007719611532193231,0.0,-0.0017806846147700628
-0.002539461976187414,-0.03277574873853357,-0.038100247438493655,-0.0026848039842920727,0.0030520122557078262,-0.020039911003609724,0.0026332978541592925,0.006974013796693163,0.0,0.0,0.0,0.0,0.0,-0.024929400246536334,0.014885453446749882,0.0,0.0,-0.023998075943523184,-0.001328424655294091,-0.00566500861061835,0.002769605341198834,0.0005670274801313049,-0.00128267789572273,0.0,0.0,0.0,0.0,-0.003602985488882969,0.007229092694473397,-0.0016371526394405064,-0.0026721240626865436,-0.005642358873428422,0.008653857299542798,0.0,-0.0016768565594595282
0.01040128136308908,-0.018915344553270853,-0.0325248424536993,0.00522434468236377,0.00868202909270335,0.021591270959843055,-0.0036779153966526056,-0.0058805324116351365,0.0,0.0,0.0,0.0,0.0,-0.01649448121115065,0.011466568922749741,0.0,0.0,-0.012798773779334457,-0.000320775312290872,0.0017035225555583628,0.0009728433598342357,0.0004724036174891413,-0.0006062385898901794,0.0,0.0,0.0,0.0,0.006562604854360022,0.0067184523198136736,-0.001777780000076292,-0.0001544426733048225,0.00325957247754697,-0.008760174341896722,0.0,-4.608615452672874e-05
-0.008663705352035376,-0.03841343686254692,-0.03212846413156765,-0.0036181574892473383,0.008618040280676776,0.0011110221010097975,-0.0010148089801918757,0.006314053418343214,0.0,0.0,0.0,0.0,0.0,0.00614767321844773,0.01701265339630761,0.0,0.0,0.017119113488688314,0.0016342322311710153,0.0012704054852966736,0.0015786450484284338,-8.032050025109575e-05,-7.381670387554507e-05,0.0,0.0,0.0,0.0,-0.004159842889507766,0.00839347260235251,-0.0015841906921944084,-0.0015912191281924047,0.0034960476680068403,0.00801759870872659,0.0,-0.0010668608881018596
0.010735394079767594,0.038434901116284594,0.060814836440713615,0.0022285240070140564,0.0040057745237922745,0.01704333967118399,-0.003618736531730905,0.007890112620044023,0.0,0.0,0.0,0.0,0.0,0.013508779566619689,0.012921364762410844,0.0,0.0,0.021006534152524296,0.0010890867489609323,0.007062645543773557,0.0025733310283363145,0.0008138464321194136,-0.0007658323204397373,0.0,0.0,0.0,0.0,0.0029445944071595856,0.007375560164441486,0.0005921392169876154,0.0014010394949133596,0.004328224875268109,-0.0041012337418801625,0.0,0.0005443719819331729
0.016973365947278066,-0.022788887819975803,-0.03498213851818649,0.004780110993498639,0.003374536660824072,-0.017966456971668297,0.006957592850181562,0.00968625713314256,0.0,0.0,0.0,0.0,0.0,-0.02639030840954956,0.0042532152820952,0.0,0.0,-0.025185460821163193,0.0003921730418988474,0.00119614538232365,0.0009676445206101984,0.0005653243344881777,-0.0037537459971628408,0.0,0.0,0.0,0.0,0.005930962130602908,0.008222046940588706,0.0012908416890445914,0.00028329382265795906,-0.005895823646434429,-0.0027732583297288833,0.0,9.814415739773139e-05
-0.0002265356856391206,-0.036249267989189794,-0.033688795786792375,0.006261721629707178,0.008007606631711656,0.02073933687218449,0.00036203380893046596,-0.0029251890593586702,0.0,0.0,0.0,0.0,0.0,-0.012010624329757831,0.01271592468805051,0.0,0.0,-0.026863939215447954,-0.007176644266777109,-0.00040606201974589915,0.001533029655120261,0.00014265071359390388,-0.0008455047446163189,0.0,0.0,0.0,0.0,0.007724319094558159,0.007357485131778623,0.0003184736988540212,0.0016745551751636547,0.0034940020225878955,-0.00027879538320968103,0.0,0.0009894542568597267
0.019049708107769892,-0.027310558225982245,-0.03414758556451032,-0.006441358612200035,-0.00510617026697394,-0.01630752438187629,-0.0072607642197134135,-0.010426322910520848,0.0,0.0,0.0,0.0,0.0,-0.025253357883955118,-0.0233841197852169,0.0,0.0,-0.02024034220769763,-0.01624751340430603,0.0004982073346559377,0.0014434181012623478,2.540350767234208e-05,0.0007479445517491421,0.0,0.0,0.0,0.0,-0.006138764524187213,-0.0036857211152918168,0.0012053565407428772,0.008415192761578138,0.011926136519061704,0.0061316763032523355,0.0,0.0023940033540209623
0.010140363877438559,-0.023137531927198494,-0.029476940802272783,0.008662457572569207,-0.0030051739115747656,-0.017171824277831687,-0.005933515038746165,-0.010676554224861835,0.0,0.0,0.0,0.0,0.0,0.013304969371939228,-0.02267818041742579,0.0,0.0,0.004282293532245576,0.0040152730294498,0.000854486004417005,-0.0008497244213279765,-4.188875844174954e-05,-0.00011298870351984406,0.0,0.0,0.0,0.0,0.010332753099725462,-0.004990542647096112,-0.0018247363513652342,-0.0011529792299206684,-0.006732043433628529,0.00687036792074319,0.0,-0.00012997414685284275
0.020653130020739464,-0.03750379834113939,-0.036689294638030986,-0.0055419498602551414,-0.001930314468750923,-0.019845214272335952,-0.004932830124825882,0.003831412387827406,0.0,0.0,0.0,0.0,0.0,-0.01160834282194704,-0.018822724841040885,0.0,0.0,-0.0228064710436016,-0.011873119838455693,0.0001518552825162736,-0.0015631582687882194,0.0007209364505288453,-0.00021090334924285672,0.0,0.0,0.0,0.0,-0.004934693710632448,0.0035887194549242686,-0.0024346128491304253,-0.004039192404412366,-0.007863354289348628,0.00898955095324076,0.0,-0.003102516705471777
0.0058255397942849115,-0.017280185880325063,-0.04216158829013554,0.002988027011863048,-0.005869934666318119,-0.018151529838873366,-0.005669227762161279,0.0012572851981003253,0.0,0.0,0.0,0.0,0.0,-0.025867783358769984,-0.021745101330784958,0.0,0.0,-0.02490025744013393,-0.014145691627303772,-1.3454971743081825e-05,-0.0042386332685921575,0.0002953683016007352,0.0012115456324669582,0.0,0.0,0.0,0.0,0.003076689296702869,0.002924580325151338,-0.0019032261669448818,-0.0024559833960916613,-0.0070302238070345845,0.003007919932944282,0.0,-0.001587932915291576
-0.004213393555129498,-0.03684334946819055,-0.033041909991947845,-0.0069755719680763845,-0.007529879879947842,-0.01678372601883557,-0.007675755217694218,-0.007212448715891963,0.0,0.0,0.0,0.0,0.0,-0.020070216314269182,-0.01474794575798298,0.0,0.0,0.0015640879890694895,0.0012078590086219128,-0.0006238897372088959,-0.006900433441464884,-0.00019839408838417206,-0.0011815157802558553,0.0,0.0,0.0,0.0,-0.0059891418447836605,-0.002970191554981303,0.008720812214340167,0.005284138782927639,0.010282163429103257,0.005105007333674095,0.0,0.004124833365057963
0.005299698600201171,-0.04094325879625012,-0.03672482481981981,-0.006074757504084244,-0.011855729217860055,-0.023599755638537775,-0.0031289001295934566,0.0033026054423834724,0.0,0.0,0.0,0.0,0.0,0.0059577119601632806,-0.0262628431291981,0.0,0.0,0.0061766011516418765,-0.0006485350507697601,0.0017282760556361317,0.0015422511787596535,0.0005897601260036815,-0.001567934253094266,0.0,0.0,0.0,0.0,-0.0072412444527551545,0.005720366919771427,0.005968462624005339,0.0009771046913677481,0.00651455035387422,0.005687212173425569,0.0,0.00042265594592730233
0.015004865836298502,0.002276008525393355,-0.04748524203581254,0.00211352622528447,-0.007175808565774888,-0.017835522983868722,-0.0017223708361860772,0.00339834432838792,0.0,0.0,0.0,0.0,0.0,-0.021354423780722272,-0.02076272654015511,0.0,0.0,-0.021807803191567672,-0.012675142521167315,0.00013669549908703235,-0.005410378504347789,7.089059618935828e-05,-0.0008117772306578554,0.0,0.0,0.0,0.0,0.002765035808828953,0.0051400109907666644,-0.0031806208456163984,-0.002758526409592928,-0.007920214421078431,-0.0053481736800545686,0.0,-0.002825085634002095
-0.01427244819542192,-0.015856956693565048,-0.017258497986942047,-0.006445097562057147,-0.003709939946623915,-0.017501271654238842,0.007086703993483248,-0.005523777342441089,0.0,0.0,0.0,0.0,0.0,-0.010819085784910275,-0.006584740152252542,0.0,0.0,0.01758862043428046,-0.0015321967938332433,0.001991890216655566,-0.0010645883797736305,0.0003508322055099105,-0.0005522023669755676,0.0,0.0,0.0,0.0,-0.006720666169726748,0.008642405544066112,0.0014055069221789779,0.0007215347517262488,0.0025340828793429314,-0.0074781363837156676,0.0,0.00041077040164541953
-0.014464930802269538,-0.016586283247642945,-0.028631790590764487,-0.005890590848739566,-0.008667607817157945,-0.020979781138362488,0.008308411616656972,0.010375305040415067,0.0,0.0,0.0,0.0,0.0,0.006592650641962256,-0.021463362535047225,0.0,0.0,0.0037701314257530764,0.00014067348632903202,-0.0004831241752296754,-0.00031954687616545354,0.0004949399272936437,-6.039819794085715e-05,0.0,0.0,0.0,0.0,-0.0065865268383610235,0.007976822809798721,-0.0016262934512826107,-0.0027087920319755214,-0.005704040232398226,-0.011951992297287932,0.0,-0.002300150919110345
-0.008989664095628428,-0.03676884524914871,-0.03417290442409355,-0.005404842609790342,-0.008666639272341107,-0.02106294716204885,0.010216821388603758,0.009019613252273361,0.0,0.0,0.0,0.0,0.0,0.024655414154230608,0.01696187731082998,0.0,0.0,0.004284917285155311,0.014269160251297685,0.0005985692849823905,-3.632792213571233e-05,0.00080554461523041,0.0015775737946534779,0.0,0.0,0.0,0.0,-0.00426075461040552,0.008832180525206075,0.0007707964169970401,-7.892315096535087e-05,0.00555973749358226,0.011085538311264591,0.0,0.001042466714778902
-0.0068182773039738775,0.03302518975543778,0.05936005902475409,-0.004850811198505901,-0.005655642408300194,-0.02099091823239805,0.008792343033512232,0.012285940189449484,0.0,0.0,0.0,0.0,0.0,0.021361208898403893,-0.027506147842624264,0.0,0.0,0.021043178120274144,0.007531256117496182,-0.0013456071256595513,0.0015172004932366215,-0.005022320501202881,-0.0010279634143784916,0.0,0.0,0.0,0.0,-0.005865341294846643,0.009491112202732094,0.00012701207765133084,-0.002007012419420817,-0.005037882728261222,-0.00893261851308011,0.0,-0.0013232828014655854
-0.010278652078851553,0.014009585653493188,-0.03594275126931551,-0.003920588782513262,0.00279203998319987,-0.02120459622177564,0.007053050645512818,0.009401103583306154,0.0,0.0,0.0,0.0,0.0,0.004847138105006798,-0.007234075932222942,0.0,0.0,0.0023314587058077874,3.210063530449394e-05,0.004078254803151197,0.00044485414214540423,-0.005144973947025764,-0.003064671315940781,0.0,0.0,0.0,0.0,-0.0048294389928152425,0.010024253240045298,0.0005985245250568197,0.0007532774220259089,0.0024728435331297987,-0.006181287308777135,0.0,0.000490758501493658
-0.009470254346028632,0.029795059764264616,0.044223131109213346,-0.0034588973350924835,0.010212447854573196,0.02547173244490807,0.009079705670668892,0.011928491606013104,0.0,0.0,0.0,0.0,0.0,0.009402819640093736,0.01134680274822407,0.0,0.0,0.010103107722781297,0.0008503629363949537,-0.00996366690905845,0.0019733371676829807,-3.6875077273686034e-05,-0.0019177321776282972,0.0,0.0,0.0,0.0,-0.004701198346967723,0.004297657546070518,0.0006619984553587191,0.0031624323659820205,0.0029602215000131722,-0.003536527856772898,0.0,0.0025308147035862996
0.012570292477036763,0.027103303153354703,0.04677571776677959,-0.005186240219493216,-0.011863122269123175,-0.020074493453856673,-0.005529414507448264,-0.003143770983747144,0.0,0.0,0.0,0.0,0.0,0.01451768931669661,-0.008395974489011616,0.0,0.0,0.016638497541230507,0.004143976988182707,-0.0004095749315588712,0.001739882228394362,0.0006886657408151005,-0.0007562282531636718,0.0,0.0,0.0,0.0,-0.003063187856052489,0.00357817922739676,3.3392662132634686e-05,0.002646409062305442,0.003997522798839762,0.005802006744988961,0.0,0.002736365207957544
0.007915344245746731,0.036791830698042045,0.060728585217527824,-0.0031189404819355142,0.004842526169367198,-0.019227991948271562,0.009976338432957355,0.009148529364645323,0.0,0.0,0.0,0.0,0.0,0.005388469154758977,0.015823975179180577,0.0,0.0,0.017396275786109784,0.001244188519294847,0.0001386537758852702,-0.0020461881718056704,0.00032887183376670835,-0.00018502975436111583,0.0,0.0,0.0,0.0,-0.0048799116575308915,0.008081549936318369,0.00035835691755028726,0.0008263300751748541,-0.000329997930124895,0.005953086253504599,0.0,2.7427785719688646e-05
0.000567906722506073,0.025003136556093934,0.052827937646783986,-0.004918127747029488,-0.01195144226090928,-0.022607555457967544,0.006735922361374037,0.011921077428484386,0.0,0.0,0.0,0.0,0.0,0.007421518899855867,0.01076858144363986,0.0,0.0,0.0209198385652108,0.0003928808619891581,-0.0018690521482420547,-0.0063938727134005575,7.466049633163826e-05,0.0016842783405930605,0.0,0.0,0.0,0.0,-0.004405686321900926,0.009100554503387325,6.091192154387383e-05,-0.0009642778671674457,0.0024668481696673663,0.007665574226381053,0.0,-0.001262011691932647
-0.0064991650491428524,0.03281104593370516,0.05622945803476461,0.0008777735816928379,-0.009733700454805037,-0.014328978417869693,0.009032692183194342,0.011747564011507498,0.0,0.0,0.0,0.0,0.0,0.021619107016399294,-0.016908296409268803,0.0,0.0,0.018742600008445954,0.012069516793304426,0.0014904989815350746,0.0029964749132994416,-0.0011089389379248006,-0.0005686034984277694,0.0,0.0,0.0,0.0,-0.0009760982618852733,0.007951169230144365,-0.00011036958496059717,-0.002000141619851656,0.00282209969971245,0.0033699548455381283,0.0,-0.00036192590345179973
-0.013603947705329269,0.00038938818762073335,-0.02007401767953625,0.006107422641542273,0.009019203918095308,-0.017591448116890406,0.004841075535455533,0.0035424090713424166,0.0,0.0,0.0,0.0,0.0,0.030328235757407264,0.016526959365219827,0.0,0.0,0.006285475136071907,0.013467747993004424,-0.008605713875210507,0.0007047546176262763,0.0004738215468189036,-0.00013620578061194252,0.0,0.0,0.0,0.0,0.00766381387066379,0.01004318210829624,-0.0017692704360005862,-0.0037887640688263093,-0.001804187690653003,0.002652667925867364,0.0,-0.0018009567590489464
0.001517399675455829,-0.016385099683116938,-0.03582996226454627,0.0057260515808367435,0.002211394986837458,-0.021467543621371665,0.0013041265339708034,0.0068142404805974005,0.0,0.0,0.0,0.0,0.0,0.006549652014686493,0.013793020063381413,0.0,0.0,0.001062371311851528,0.0009911863134971339,-0.00017321944442540198,0.0011845842623016817,0.0002706439692329873,-0.0002739264478503363,0.0,0.0,0.0,0.0,0.007609751117115224,0.008558299491302258,-0.001689501132462196,-0.0034655069485614964,-0.006574563563174364,-0.006791221505228382,0.0,-0.0024640963308962967
0.006374859170553302,-0.015131270004290851,-0.03570483535131042,0.0036788011726052072,0.006488863817021473,0.030161743299185476,-0.01105475467230219,-0.008113734658094084,0.0,0.0,0.0,0.0,0.0,-0.010916038101280981,0.012120279297964734,0.0,0.0,-0.022603271274282095,-0.001281103688801664,0.0005597768068109835,0.0003717606010243344,-0.0002025003664353578,-0.0013491160808615532,0.0,0.0,0.0,0.0,0.0026914866760519517,-0.007010555431381686,0.0002414135910782146,0.0006623591428432421,0.002180602520169394,-0.004265751297295049,0.0,0.0004502769189157406
-0.00621124508341516,0.036645477310049725,0.0588212739866375,0.004052475613541565,0.006305104595607766,-0.014963195612696652,0.006147221281950415,0.011549610150109482,0.0,0.0,0.0,0.0,0.0,0.018317725502464872,0.014839389105528884,0.0,0.0,0.019507609287434658,0.001290558276689527,0.0046598752388299315,0.004280457501297666,0.0004672594470511843,0.002106767133987034,0.0,0.0,0.0,0.0,0.004114685501735998,0.008790436531895651,0.0005257800705542615,0.005069381055606303,0.005034641835805923,0.006939861769122851,0.0,0.002347174341592546
0.010070705207214856,0.027256573578228655,-0.04017880968165565,0.0013453168415681384,0.006226145111557974,0.024303300691280783,-0.009765237281056898,-0.010185304827350031,0.0,0.0,0.0,0.0,0.0,-0.018405027885036722,0.012807963620084574,0.0,0.0,-0.02049160027608887,0.002859910297397763,-0.0008822669717425126,0.001025462643170898,0.0003280960372336017,0.0020268147686325743,0.0,0.0,0.0,0.0,0.002464147517301599,-0.00538755153742466,0.003882484614630892,0.00035943879461680563,0.003858699634457221,-0.01187481736217295,0.0,0.0002886388254153072
0.005674062725161178,0.03564736902625223,0.05093726362501952,-0.003773436297938353,0.00555834209100471,0.01023543321179755,-0.005688048270873024,-0.012398462021220202,0.0,0.0,0.0,0.0,0.0,0.009352117024918439,0.013533577162154349,0.0,0.0,0.02135429772092745,0.0012084479921604726,-0.0013737279703686235,-0.0030044066850525757,-8.74036129413631e-06,-0.0011850068514384026,0.0,0.0,0.0,0.0,-0.0026581716652307637,-0.0017754134813344254,-0.00023306993902514809,-0.002617694898581374,-0.004705711657897851,0.004042435261679932,0.0,-0.0016369482583286554
-0.0034863063137676757,-0.042822006958136045,-0.03385045582979885,-0.004848731535155702,0.003792665131990064,-0.014821403301273144,-0.007869527199734837,-0.01093647634148869,0.0,0.0,0.0,0.0,0.0,-0.010467071794240558,0.014450987517362499,0.0,0.0,-0.018285851581206217,0.0005765288598769098,0.00015536117369891234,-0.0022499953895258637,0.0006342363021947792,0.0006913471308877503,0.0,0.0,0.0,0.0,-0.004222146149669623,-0.004830389322793952,-0.0022635633984277193,-0.004767337405080997,-0.009819464786558816,0.0015607370722510651,0.0,-0.0025808411193643595
0.009838257816936214,0.030698815251995547,0.046820788941655894,0.0028105310179645845,0.009121836245868792,0.0265779024616134,0.0025802825825890045,0.010921055697059843,0.0,0.0,0.0,0.0,0.0,0.013497718702232509,0.01129342864128428,0.0,0.0,0.012698726975674481,0.009620609004063444,0.005775249024933986,0.0019098225354577038,0.00036653896097200636,0.0023749195056361324,0.0,0.0,0.0,0.0,0.0038510100095401176,0.0070275429737623974,0.0005915968551127704,0.0009232266953238825,0.004452976379551796,0.0010528011450966733,0.0,0.0010621721045372418
0.012249648186844887,0.03961671038353802,0.060650638462087,-0.002610820868772296,0.008030515133301323,0.02542874635681929,-0.009547753527227558,-0.011154270554401413,0.0,0.0,0.0,0.0,0.0,0.01126166461938044,0.013856298888184272,0.0,0.0,0.018594181030255435,-0.0002778181582337267,-0.008461557758070505,0.00239687707931497,0.00026848184283263094,0.0014356197519912286,0.0,0.0,0.0,0.0,-0.0012549577732775233,-0.006050347419470924,-0.00019320520311129393,-0.0028247693886768585,-0.004597254385594086,0.002453648169642644,0.0,-0.002314576181472172
-0.003195496277269589,-0.03318508899558015,-0.03170926752802664,0.0005092363477821238,-0.006151922297851252,-0.017841663433388166,-0.0066197949611531606,-0.008528850853117359,0.0,0.0,0.0,0.0,0.0,-0.025666071528448613,-0.020923729017423898,0.0,0.0,-0.020771141923245647,-0.004004055572707447,2.1224316153777473e-05,-0.0014707994321740189,7.298388502445601e-06,0.003880273288448952,0.0,0.0,0.0,0.0,-0.0004822486060215121,-0.0029242595224497504,0.0047859682438826595,0.0012903532788707168,0.0058351440203967325,-0.008877231991967488,0.0,0.0008258597815251781
0.00415347410778607,0.03186506513246355,0.04582743614905853,0.002626828883844732,0.007164516809132841,0.027831843614811436,-0.0056741322164489474,-0.005402924432497285,0.0,0.0,0.0,0.0,0.0,-0.029025414894539348,0.011214169152394492,0.0,0.0,0.024840508898051592,-0.018509195579510956,0.0011085857111377078,0.0015916232882151181,8.591319783721776e-05,-0.0008492952213686872,0.0,0.0,0.0,0.0,0.0051403011259195655,-0.0037461588184019715,0.000856787121124286,0.0006077284265372193,0.0028524451030305393,-0.014698715472627447,0.0,0.0012482447944649729
0.011215637811375289,0.03047206642355231,0.052811377473701314,0.0014444753429128563,-0.01649825709032054,0.00925931498669727,-0.004653593171180293,-0.0027267079097282325,0.0,0.0,0.0,0.0,0.0,0.005485096984301265,-0.022574149956233268,0.0,0.0,0.02858596460071984,-0.009119717351033094,0.0002762605826805463,-0.0010284056416260533,0.0013756435471050253,-0.0006988869418132648,0.0,0.0,0.0,0.0,-0.00012633507002519386,-0.004644233935231518,0.0006402719024378859,0.0024443170796270134,-0.00252892352262969,-0.01168825078617566,0.0,0.0035922689444294257
-0.0010812696580982698,0.00330285416789746,-0.03226506945107925,-0.0036794000802217257,-0.014903093610820619,0.022895803549880342,-0.006563514669112977,-0.004777020294626171,0.0,0.0,0.0,0.0,0.0,-0.019582456609593315,-0.02061934877932828,0.0,0.0,-0.019221380370844452,-0.00329744428677871,5.2552003809881536e-05,0.0011649928917902585,0.0007878565556044098,-0.0013660257950669583,0.0,0.0,0.0,0.0,-0.004614106509423955,-0.00543464504357576,-0.0017439551711461057,-0.0019050035115513323,-0.00658493516495634,-0.0027159914295674407,0.0,-0.001231625845122511
-0.006224039237660692,-0.015080707872530186,-0.033130417868990895,-0.0009174462159553531,-0.011278362231072439,0.010709122952031963,-0.005349493275300192,-0.006135630678051407,0.0,0.0,0.0,0.0,0.0,0.029061334037358194,0.015749253091772997,0.0,0.0,-0.009430482349999589,0.013107193723026626,0.00020002652433184225,-0.0008637205612149446,0.0007165114303367616,-2.480828462640255e-05,0.0,0.0,0.0,0.0,-0.0004979384112881682,-0.009330041680044029,-0.0025875847828471183,-0.003681235899319306,-0.008060458288610824,-0.0034451164782459886,0.0,-0.0022456680916251434
-0.004725922319003665,-0.04659797856744478,-0.041912484697999956,0.009421274560993563,-0.013518176323487412,-0.016095083646594035,-0.0068114671309029515,-0.009389006155055314,0.0,0.0,0.0,0.0,0.0,0.0248006070891626,-0.015676494878495612,0.0,0.0,-0.019821248681557307,0.013614685157653463,4.696732431750303e-05,-0.0005576390208853104,0.000249096742333085,-0.0013205906593761402,0.0,0.0,0.0,0.0,0.004558550195720444,-0.011627335365561764,-0.002590640244835732,-0.00490263958155579,-0.007971578593556815,-0.008076654152985408,0.0,-0.002880117173647077
0.002163882292275276,-0.03637163696191345,-0.04657125755637631,-0.005857102715840776,-0.01931278802342459,-0.020011704690716864,-0.002671557954835566,0.0021297930044436005,0.0,0.0,0.0,0.0,0.0,0.02793717414575275,-0.026190665332311888,0.0,0.0,-0.020472640027228907,0.01250438639753538,0.0011553408412599553,-0.0010572366397853918,-0.0007143059838109104,-0.0008144948344611617,0.0,0.0,0.0,0.0,-0.005269808835958016,-0.001075549763357916,-0.0025535718154683137,-0.003699739915666529,-0.0073711858063240845,-0.012145547875264255,0.0,-0.0027296437046392245
-0.0010034139554092973,-0.04413383396947863,-0.04308405542628874,-0.005538147137707094,-0.014053142128607815,-0.021230671721134894,0.010403789699587674,0.004430967943426636,0.0,0.0,0.0,0.0,0.0,-0.0291277124010546,-0.02442011137875348,0.0,0.0,-0.022314757688400442,-0.0019330035589126778,0.00011915671169372221,-0.001320614337519183,0.0002324114867043782,-0.0006534623539596836,0.0,0.0,0.0,0.0,-0.0050204441275866945,0.004965185071426468,0.00029000233944592984,0.002824356376742211,0.003167172570955457,-0.002367486745556803,0.0,0.0010518234826368573
0.009005777126236585,0.03995209119691925,0.05676558999066369,-0.0018212381572866928,0.008256043825663377,0.007592351516273059,-0.004078520472264931,0.011903555128468215,0.0,0.0,0.0,0.0,0.0,0.0075752933547301275,0.01425304630787418,0.0,0.0,0.006954855396167969,0.0023874196193592982,-5.7255167923323426e-05,0.0016462541177292168,0.00019821247762529418,-0.0004535882255626876,0.0,0.0,0.0,0.0,-0.003322212021472018,-0.0024451072108624436,0.00011194537330591202,0.0013440912273392947,-0.004483248111717712,0.001974856284972872,0.0,0.0009004618044924414
-0.0075667497433156835,0.0205639142203921,-0.030671187349233704,0.002436627556053827,0.003862517164605757,-0.014804406014034772,-0.0057312823896174874,-0.003593353681410015,0.0,0.0,0.0,0.0,0.0,0.028364264337699167,0.008329916742998374,0.0,0.0,-0.0024259988188580074,0.006957210851647927,-0.0009874013211521471,0.0007979268819277651,0.000619579600739507,-0.000817768099403288,0.0,0.0,0.0,0.0,0.0013580608525128512,-0.006153973555458718,0.0053970239688460025,0.00044331539932494925,0.003866772382149545,0.003817817544442079,0.0,-0.00012508191809621174
-0.0063570085512570235,-0.044753331032205065,-0.04216324000244367,0.008472867626766687,0.003937271256542547,-0.014792052142178404,-0.004899115694186359,-0.005025690279468393,0.0,0.0,0.0,0.0,0.0,0.027644260982497417,0.005855789757333151,0.0,0.0,-0.022579473839987884,0.01238270529245323,0.0019215185587939752,0.0020104449666526274,-0.0010481761186768453,0.00022023479294247013,0.0,0.0,0.0,0.0,0.011032105850821127,-0.0055060493041286475,0.0004362287348165618,-0.003566777855736853,-0.00912830736431082,0.005648391702735196,0.0,-0.003323785753810588
-0.009228603173934993,0.010279975126133233,-0.03047554271472904,0.002122855228192225,0.008282640052039665,-0.01756353889183009,-0.003076248169348982,0.0015293839793928525,0.0,0.0,0.0,0.0,0.0,0.020913221304419898,0.019235195422094387,0.0,0.0,-0.012926411402661046,0.009465290478060516,0.002339314881135859,0.0007428977274794855,0.0003484753708722696,-0.00038687958493532063,0.0,0.0,0.0,0.0,0.0006220407536467335,-0.0012710255539369018,-0.0008968400508101335,-0.002564107407303915,-0.006037861549954656,0.005943328647017876,0.0,-0.0024609140799048165
-0.0069730592593226955,-0.014866848685971107,-0.027464854297814017,-0.0029398939391916106,0.009255166941511383,0.040290219122031415,0.00735006752815685,0.004978418557913506,0.0,0.0,0.0,0.0,0.0,0.0036282277830840064,0.010745577879113812,0.0,0.0,0.003900858106282499,0.0020442478176980186,-0.00040440381774138563,0.0013052467464677374,0.00016268975982518523,-0.0010998928928795384,0.0,0.0,0.0,0.0,-0.0050540903877060684,0.005710482139155157,-0.0017011138699806363,0.0016646657896810721,0.002546248112721225,-0.0009286142886160133,0.0,0.0009955085034815472
-0.006395370878466824,-0.0367942237802796,-0.035103188341375234,-0.0052399141660191195,-0.013096692294337254,-0.019762357887535796,-0.002603585421023273,0.0011597045963394994,0.0,0.0,0.0,0.0,0.0,0.006767347016620913,-0.012964753008514272,0.0,0.0,0.0012875382926300998,0.002466567456279216,-0.004915595658203117,-0.003439318116453305,0.001052481990596089,-0.0009116244264447038,0.0,0.0,0.0,0.0,-0.004752060076544356,-0.0008637373748041941,0.005333524079377073,-0.001940966581642913,-0.008583398243223309,-0.00435939021249693,0.0,-0.0014824976176366206
-0.006027955536305037,-0.036455232978307626,-0.03778806209351588,-0.004513883971601929,-0.00570986780223369,-0.019202460466185338,0.009764036941313212,0.008077773224189268,0.0,0.0,0.0,0.0,0.0,0.023637106324973043,-0.026118497923971085,0.0,0.0,0.001054626846040997,0.004677574697610687,0.001934529418522376,0.00036814571653525957,0.0008947887620735077,0.0015103929677551704,0.0,0.0,0.0,0.0,-0.007256339604386983,0.004779024033333596,0.0005880139783577227,0.005951102238877932,0.008055344277752466,-0.0049222663525128755,0.0,0.003473281158359618
-0.005894929066610284,-0.04318046231156525,-0.040236463631145615,0.006569877729115733,-0.007627822188031386,-0.015530205105820602,-0.004625201517532378,-0.002604273806246486,0.0,0.0,0.0,0.0,0.0,0.0052606348451908124,0.013407357275667393,0.0,0.0,-0.01048331978880295,0.004563005997184529,6.900416798179256e-05,0.0004103516050085627,0.0007733493889746139,0.0011600441191926035,0.0,0.0,0.0,0.0,0.007823050367880896,-0.005159878637714887,-0.0027163379797308378,-0.004565580520601425,-0.007670229974523247,0.003111884916116176,0.0,-0.00300383425257005
-0.008547367979728639,0.007850709973349237,-0.018956182217120424,0.0021707854276102026,0.010490974126350597,0.03672042233979088,0.009080267107120147,0.01423666059580643,0.0,0.0,0.0,0.0,0.0,-0.013595936256873027,0.010935010925506078,0.0,0.0,0.01519169827252418,-0.0060852716964412135,0.004886627316967261,0.001607591955446997,0.0007182382304650768,0.0028215650821502535,0.0,0.0,0.0,0.0,0.004516569958373151,0.00816904111196098,-0.0002711709521822935,0.0013194793165853666,0.002998989300055182,0.005945189786845113,0.0,-0.000976895680148783
-0.006437158716314461,-0.04265738044287631,-0.038197719549235086,-0.003471203970911235,0.006345441956524862,0.04486266348596504,0.0061341900538277455,0.007026184292102134,0.0,0.0,0.0,0.0,0.0,-0.025242370911048438,0.012896183033891796,0.0,0.0,0.006253219419678878,-0.0018700228720504052,-0.0009173168392484601,0.00029911647204720405,0.0006751867630820846,0.0019591787532774723,0.0,0.0,0.0,0.0,-0.003109674991693797,0.002479899851799373,0.004704564797916073,0.003000418810465838,0.006094985037927599,-0.004110422908462769,0.0,0.0009269283204679018
-0.0065915973454446575,-0.03516469664097117,-0.03428258370008615,-0.0051736801353317345,-0.00871190881874551,-0.020126695296084064,-0.004720240914485261,-0.007492685839287134,0.0,0.0,0.0,0.0,0.0,0.01663953376155352,-0.025981677882670265,0.0,0.0,0.001272925749919337,0.002510981873660889,0.0007214848619724134,-0.0005873597829136832,0.0002800261854752812,0.0018950107319468767,0.0,0.0,0.0,0.0,-0.004695124999691253,-0.004039600258912345,0.005964548860254469,0.002052702261870968,0.009828891018555974,0.004703112423488923,0.0,0.0014777142469129185
-0.007252123835245126,-0.03480256448981588,-0.03958916802227537,0.001024705663031316,-0.010586465251446119,-0.018367151438676874,-0.005225276877181645,-0.0041298734138595266,0.0,0.0,0.0,0.0,0.0,0.01632345152990751,-0.0256478088433207,0.0,0.0,-0.0016110679154158294,0.006336711520561313,-0.004970245855384244,2.653801810869116e-05,6.178682521768345e-05,0.0016703732445815967,0.0,0.0,0.0,0.0,-0.0006657130570016513,-0.0046529623918273,-0.00022124762723628124,0.00019039212110692668,-0.004510286956397031,0.005003146228351978,0.0,0.00036430597754419375
-0.007678996794175473,-0.05007461694624387,-0.04156678677027996,-0.005334780108524025,0.002398780593616144,-0.0165180537929535,-0.006122171351990608,-0.007760818600959633,0.0,0.0,0.0,0.0,0.0,0.028602468662205612,0.01744530108183955,0.0,0.0,-0.01676786808983945,0.013256671237491437,0.0002866190373756185,-0.0008743261859583799,0.0005790688789422847,0.0005654337252484268,0.0,0.0,0.0,0.0,-0.0054097326461811064,-0.006799804294435901,-0.0029746258849196855,0.0030395410102050974,0.006630887301259274,-0.0039928917853956185,0.0,0.0014207217475854397
-0.008687863819028223,0.027826273526811995,0.041164154733276614,0.0015600096374069452,-0.02052798027143089,0.010009144541165492,-0.006648531313619415,-0.01071205084529126,0.0,0.0,0.0,0.0,0.0,0.004940139590039092,-0.025490789755821204,0.0,0.0,0.0039009292731818274,-0.0022047622626714318,-0.002552332502191832,-0.0011613289498995179,0.0006085848509185749,0.00028475730017363384,0.0,0.0,0.0,0.0,0.0027363769290627174,-0.010929563084579777,-0.0013390668986489659,0.0004517389625824931,-0.005705406744673448,-0.020116653761003092,0.0,0.00022759059877271024
-0.009769162673728357,0.032310623833784344,0.044798885075623164,0.0017138607844011044,0.008102956806095664,0.02414687310183292,-0.005996059478267168,-0.007800583548820955,0.0,0.0,0.0,0.0,0.0,-0.022813450583582816,0.015575483334598024,0.0,0.0,0.0014483587920763696,-0.011756926071225615,0.005232347576736215,0.0014498203885101046,0.0008145623774434957,-0.0005709219297968131,0.0,0.0,0.0,0.0,0.004472441035503071,-0.005278743981259242,0.0007203203274697879,0.004946641563404527,0.006667315659249658,-0.010251246782581665,0.0,0.0023976334853820784
0.006060138222324005,0.03591026442663748,0.05130505477858217,-0.0029731409144594712,-0.01991900478607542,0.010223396164878173,-0.005407646391481437,-0.007373647325887398,0.0,0.0,0.0,0.0,0.0,0.0027154437720586094,-0.021910557112556586,0.0,0.0,-0.003042640456431028,-0.0028000193366133196,0.0005819363138028073,-0.0032591733629984657,-0.006540488592178049,-0.0011925160536956291,0.0,0.0,0.0,0.0,-0.0036226530511250916,-0.009234621209787198,-0.0004716627377156498,-0.00019146516847011095,-0.004203454562726712,-0.01734580548404892,0.0,-0.00030088398697083557
0.005094489731889854,0.03140262175822739,0.051061411428232915,0.0025553491174327403,0.009569459484386086,0.026947480701350293,-0.008414655941045282,-0.007800331616899936,0.0,0.0,0.0,0.0,0.0,0.022529736631336714,0.013142385138816682,0.0,0.0,0.009868875956140678,0.0006356091009904752,0.002794094059901871,0.0017885978243375328,-0.0016461588542910808,-0.0002808940015014757,0.0,0.0,0.0,0.0,0.004796449833692042,-0.007088440188598641,0.002854035822769988,0.0022689917391761046,-0.0038320649701005837,-0.009240141824871649,0.0,0.0020101477090195994
0.013931905599183494,0.04041965666823152,0.06338260750486163,-0.0016905502062154905,0.006727943190507497,-0.013601284063968433,0.010043374735916454,0.009998233758808706,0.0,0.0,0.0,0.0,0.0,-0.030810147918407384,0.002199873705180336,0.0,0.0,0.022063779321925204,-0.007525650349841924,0.0013096490358191757,-0.00038507699979090836,-0.0033743962404075567,0.0009806661733224337,0.0,0.0,0.0,0.0,-0.0025047443775744367,0.005208733829006731,0.0007806217324957467,0.001061051330606454,0.003769844349039242,0.007329326883745692,0.0,0.0008305828233627992
0.0070530175275044715,0.038049248609940044,0.05862566333146054,-0.0024921874680432715,0.010265293140022726,-0.019711568263563937,-0.004630703660737561,0.001319047745284972,0.0,0.0,0.0,0.0,0.0,-0.03529296110426555,0.01644701233769557,0.0,0.0,0.01604160880151966,-0.010098349495602413,-0.0012138021688246105,0.0015803452518430552,0.0007454720993505292,0.0002810451893905229,0.0,0.0,0.0,0.0,-0.004028413851454319,-0.0036935177413094005,6.802307535537329e-05,0.0016494625983624967,0.002850396503043081,0.0070625049805818916,0.0,0.00026617989607943576
0.013875990343783047,0.034604225796877,0.05639602295245654,0.0023878339877246983,0.008043792674608988,0.03230965966628377,-0.0063107031378818,-0.004929575371545322,0.0,0.0,0.0,0.0,0.0,-0.026266930290378295,0.012681066849016709,0.0,0.0,0.003312445506363075,-0.005189632261924689,-0.0006125243219758603,0.0016758064764202316,-0.00020025472711422565,0.0015766974512922696,0.0,0.0,0.0,0.0,0.0036187925787401244,-0.004110122965460401,0.006001584836768223,0.0016504869529219,0.004023079283933782,0.003568923646088374,0.0,-0.00013890115448832275
0.0004790000337960749,0.03237846009198124,0.048066051154643755,-0.0017170736033366664,0.011328456067300458,0.030965888730491095,-0.0065703553272301735,-0.008777538654687219,0.0,0.0,0.0,0.0,0.0,-0.03250262000662036,0.011361814633049694,0.0,0.0,0.024471556122631778,-0.015210931190813758,0.0038346400441234114,0.001293414881884501,0.0006307670646580036,0.0005006590143078914,0.0,0.0,0.0,0.0,-0.002633790759674644,-0.00383774265529947,-0.0008622277107579979,0.0014309803842576531,0.00481083632627492,0.005160894229457932,0.0,0.0018544019533041172
0.009821856125181654,0.03839957427984134,0.059176660255294326,-0.0010150892143164767,0.009093614590332299,0.016305791609235513,-0.005051139896022766,0.0037683795333274903,0.0,0.0,0.0,0.0,0.0,0.001642292977742852,0.014520121365991004,0.0,0.0,0.014286143037173077,-0.0007737692466003456,0.005156578180504946,0.001880822301270349,0.0005724351411689083,-4.056221029574784e-05,0.0,0.0,0.0,0.0,-0.0023683168972828262,-0.0031559480626702665,-0.0009412057304820109,0.0013680634415302263,0.00335240682520929,0.006622893916669084,0.0,0.00046575348123582307
-0.0028189536233789035,0.02689644048800782,0.04772741481285313,0.0038240309196434638,0.010819080269309557,-0.027656089209515917,0.010120095000453954,0.011426839696312325,0.0,0.0,0.0,0.0,0.0,-0.0355143994929843,0.013811496088770704,0.0,0.0,0.002931733535941736,-0.008968624777419908,0.00010814293321442633,-0.0012110295954524545,0.0008088866144548036,-5.673835370892029e-05,0.0,0.0,0.0,0.0,0.0062017602294525236,0.009527345262974583,-0.0021085367703341565,-0.00257854859383865,0.0023481562527290266,0.002547836050836253,0.0,-0.0009882752999885555
-0.005753477454776799,0.02829661167294747,0.04969825000210683,-0.0023516415719435717,0.008103990894460247,0.010089043222605181,0.0029877627708030214,0.004492054040017136,0.0,0.0,0.0,0.0,0.0,-0.004940902947595996,0.011974729991769961,0.0,0.0,0.014520791448741726,-0.0013673279080808748,-0.00854425826769138,0.0015376623972723571,-0.0004962276470572586,-5.348255793079732e-05,0.0,0.0,0.0,0.0,-0.0041602164979525425,0.0016470864180907917,-0.000654670763135011,-0.0010658344410452959,0.0029350430101394084,0.007346110506713624,0.0,-0.001015760905073856
-0.004181551921622847,0.029567959496558615,0.048692002741450524,0.0015865327484000206,0.006396413954087384,-0.0264022263478337,-0.004997573759076386,-0.002954731911641639,0.0,0.0,0.0,0.0,0.0,-0.010648859465371153,0.0062735481533591105,0.0,0.0,0.02251408751829271,-0.009286722419239234,-0.0006203743117844969,0.0011785894294068983,-0.005552249547283163,-0.0010627243530852244,0.0,0.0,0.0,0.0,0.004094785999304127,-0.003731086037574958,-0.00021261371273645523,0.000842647989098645,0.003948727426703955,0.007020718221663952,0.0,-0.0006589785408599903
-0.00801234404799035,0.03445239685782707,0.05624111174447853,0.002006393227123273,0.010883005479385607,0.022643807617180746,0.01265712118484032,0.013493751565115394,0.0,0.0,0.0,0.0,0.0,0.002556012895164081,0.011823936974744036,0.0,0.0,0.0022896410932907313,0.0018627369377808107,0.003945898106035311,0.003724772213279522,0.00043344720982749213,0.0005935745349085243,0.0,0.0,0.0,0.0,0.002668691745190124,0.00905585073826942,0.0009809064992628367,-0.005314156838853711,-0.005767972724164159,0.006483031858911184,0.0,-0.005328991656012013
-0.005797463946225438,0.026846436294567715,0.04541580102447346,3.0157868184591956e-05,0.007222010734851683,-0.021936170820784938,0.008946724025128751,0.005744135006960979,0.0,0.0,0.0,0.0,0.0,0.001620111146683687,0.014185511670569301,0.0,0.0,-0.0005800588451377093,0.0018552135432622716,0.004902176321967477,0.001572953711020851,0.00043906092937264423,0.0012120718300227048,0.0,0.0,0.0,0.0,-0.0020997798074775093,0.007317849787168623,0.0013239628293425596,-0.00291112307620824,-0.0042798297707661625,0.006229007799880453,0.0,-0.0022469202698402967
-0.0034112099122908823,0.024792715901977035,0.042190226727475105,-0.0017266593088803837,0.009671093410774762,-0.012575577815746176,0.006418129322658418,0.003951531645386928,0.0,0.0,0.0,0.0,0.0,-0.01767865597624989,0.014056636901166002,0.0,0.0,0.01502055227015962,-0.002459732613986809,-9.572051713798575e-05,-0.0015384383734119542,2.1917076508854282e-05,-0.0006493788709701071,0.0,0.0,0.0,0.0,-0.0025149292556487166,0.004653965259368922,-0.00021316906175652766,-0.00010381543477618494,0.0035724207404118284,0.006533514328268729,0.0,-0.0012315573896907225
-0.00814272977518162,0.02714756829860109,0.028184894660438293,0.0025139116544224886,0.007019710040832614,0.014333300572703763,-0.0046333119010192984,-0.004266232280227977,0.0,0.0,0.0,0.0,0.0,0.00051281511920296,0.013195236473622836,0.0,0.0,0.00017097345567733754,0.0011815411114607984,-0.000995637579840114,0.0025740183509821092,0.0006360445622401664,-0.0009116804011956009,0.0,0.0,0.0,0.0,0.0029796567142282735,-0.00421729194763374,-0.00036672669447247876,0.0005137181732865637,0.0028402789925171656,0.0051666996389966545,0.0,-0.00034566340340506864
-0.008951145227483887,-0.012490518304308328,-0.019557735586430088,-0.0014701951295932848,0.00737102955390891,0.038718337911601494,0.012185123783694704,0.009762477625700322,0.0,0.0,0.0,0.0,0.0,0.0008465932224436358,0.011862155812215072,0.0,0.0,0.01180500897022364,0.0001006524713537267,0.0005398310946341389,0.0014797209370300444,0.0003703887433507879,-0.0008142148758991454,0.0,0.0,0.0,0.0,-0.002450014715296293,0.008927729262933382,0.00019494522153136603,0.0020777084039266167,0.005487095569104085,0.00040869449906927606,0.0,0.0013400153665073418
-0.006878805556045845,-0.04792225318131409,-0.0484492759185697,-0.006289509404053988,-0.009749025906892842,-0.014967048529541125,-0.003751961010818897,-0.002474012922822714,0.0,0.0,0.0,0.0,0.0,-0.009987074511155465,-0.010421772763708896,0.0,0.0,0.01124128583170957,-0.001145675442355866,-0.00030465873114344285,0.0001752955647676675,0.0007193620606931464,-0.0006335734497864946,0.0,0.0,0.0,0.0,-0.007093438847974446,-0.0019491850287766605,0.0070701693209034135,0.0022289173850666565,0.005692014971474532,0.0032554849024360776,0.0,0.0014436208431491447
-0.009962309699850975,-0.0021765947708476323,-0.028387717602424076,-0.0018605104812338675,0.008561982377643686,0.010713616488219325,0.01024043142594784,0.005834688771320018,0.0,0.0,0.0,0.0,0.0,-0.005538038741498541,0.013839414450983172,0.0,0.0,0.0014720671107638756,0.0021363123822033285,0.00039871298045099645,0.000645210180529055,0.0005688661513653252,0.000561672368505521,0.0,0.0,0.0,0.0,-0.0030812565085962676,0.006312115252602148,0.0004443572616075008,0.0052812437507400835,0.006777066881751877,0.006771712932861359,0.0,0.002254915034906432
-0.010241797678297396,0.017437284471949737,-0.01828872849624861,0.0012703450055556692,0.005454192473076412,-0.016790299243366794,0.009244351184131323,0.006733259771500616,0.0,0.0,0.0,0.0,0.0,0.006061545377847431,0.011486431480970219,0.0,0.0,0.002982669277517509,0.0011221413504790764,-0.000846553820148093,-0.013268717003712361,-0.0013549383783073175,0.0009821310131208206,0.0,0.0,0.0,0.0,0.004207695874872652,0.0075999302403332416,-5.564597412986859e-05,-0.003533470678329112,-0.004512440418453026,0.00612192487842818,0.0,-0.0024195020494581273
0.006763517917995174,0.03363292181037087,0.06028199143089619,0.00054133254383976,-0.016572350472853773,-0.025005153333195897,-0.005373341390200488,-0.004375707643032693,0.0,0.0,0.0,0.0,0.0,-0.029566825114788624,-0.013845527673274766,0.0,0.0,0.019614813369058105,-0.012143364308694601,-0.0020225647596679827,-0.00276526544048388,0.00025076872879955777,-0.0019713803915526506,0.0,0.0,0.0,0.0,0.0013435261198392653,-0.0035519594558567364,0.0038409121238489525,0.006465616234646141,0.00834750706358,0.0015602193401797434,0.0,0.0030237292132463634
-0.007349187814615384,-0.03798376078652188,-0.0360644399405003,0.0028557757546510986,-0.004007972723521344,-0.016043983547197577,-0.00500334726559504,-0.003207334682879512,0.0,0.0,0.0,0.0,0.0,-0.03447310129978982,0.005608234090011496,0.0,0.0,-0.023262582541946113,-0.004256116589581125,0.0003575883741398913,0.0004880452797294942,-0.00010268811668263921,-0.0009648187588810369,0.0,0.0,0.0,0.0,0.0021335796632800047,-0.0031530583095400627,-0.0019521501097790133,-0.0007548443742490646,0.0033637612665346484,-0.008457695745617192,0.0,8.286628041674309e-05
-0.0026987701643267498,0.0365481912190176,0.06414585117967951,0.003086367841929855,-0.01171847193439663,-0.02186862567121454,-0.005165602827853398,-0.0043906134005835375,0.0,0.0,0.0,0.0,0.0,-0.007556679782114036,0.011235056153525559,0.0,0.0,0.024378819818219214,0.0007059170414612571,0.0026845462812176003,0.0024768939105587954,0.000911568347462998,-0.00043977912045295756,0.0,0.0,0.0,0.0,0.002300475006092818,-0.003787230270128654,-0.001609870277049779,-0.0011137650265084296,0.0027709791936439293,-0.0005297190536611499,0.0,-0.0008961146262049725
-0.007358932750173674,-0.035170994795867105,-0.036128582208181145,-0.006478143714324248,-0.011286318895810294,-0.019230736662251325,-0.004835142779389105,-0.004099548853676563,0.0,0.0,0.0,0.0,0.0,0.022520318741832312,-0.01018276795696022,0.0,0.0,0.0006521377133009281,0.005687679387408893,0.0008242330069858745,0.001076356308845364,8.971283305311982e-05,3.269894704100872e-05,0.0,0.0,0.0,0.0,-0.005598643835650385,-0.00577278595533696,-0.0018873777742918906,0.00047155305883653475,-0.004715979570762865,-0.010458149436701347,0.0,0.0003503143313055369
-0.006213343139551517,-0.037585136855838294,-0.04437782130844864,-0.004487490818980184,0.0030697256805054035,-0.016929538531564654,-0.0047441358036125645,-0.0033959612329251573,0.0,0.0,0.0,0.0,0.0,-0.025705346389953927,0.007250026812622412,0.0,0.0,-0.02188685645212493,-0.0071478229060767395,0.0004473281693034252,-0.001026154847555372,0.0006286417633762692,0.0013161612234912534,0.0,0.0,0.0,0.0,-0.005316106007842021,-0.004015506628600594,-0.0017635085211594112,4.5624916542553356e-05,0.005507398610758468,-0.0033009564363356836,0.0,-0.0004496924061630481
-0.007479433614253573,-0.03772484925621384,-0.04633818646898411,-0.005541190367051304,-0.014856639999077655,-0.016664234922828126,-0.004443590259927779,-0.00043954050304115055,0.0,0.0,0.0,0.0,0.0,-0.030677584581489975,-0.021186846048404578,0.0,0.0,-0.022700701923323567,-0.010891629232420812,0.0019979629018873047,0.0005897199142428766,-0.001553530289851084,0.00028153317166029046,0.0,0.0,0.0,0.0,-0.005450136637970266,-0.002838970147652532,-0.0018438904637889317,-0.002289817142295183,-0.005938509404205813,-0.009752752229606915,0.0,-0.0011949519174463026
-0.0027392214435983404,0.013162965840461548,-0.03363218330712545,-0.0047415190438271524,-0.007679356070748206,-0.020450191319399246,-0.004564423772230825,-0.004429395357655927,0.0,0.0,0.0,0.0,0.0,-0.012846199479029149,0.009297085320398567,0.0,0.0,-0.0008715346665898905,-0.00019249082043737087,0.0009183796092609422,0.0012775698126153746,0.0006186802079491173,0.001487053046036338,0.0,0.0,0.0,0.0,-0.0030215265955291877,-0.004477445883859981,-0.0017131901263656897,-0.0020998074676056512,-0.0053388533727667395,0.009341248717766723,0.0,0.00034490636485080893
0.016873240684624025,0.0014872678225211695,-0.01136608229853087,-0.0031802984239541203,0.008424234079271543,0.029255363486903444,-0.005624851979823985,-0.002172394410395778,0.0,0.0,0.0,0.0,0.0,0.01665213787017283,0.013080426235262739,0.0,0.0,0.002007073871590532,0.0011428157873369558,-0.0005412586470523728,0.0010818523795219186,0.000649766609589466,0.0017793488006090348,0.0,0.0,0.0,0.0,-0.00558373169571742,-0.00349494071165827,0.0037468690497069836,0.00859301017141651,0.008481291891181979,0.0013564669155852996,0.0,0.0034361040672336476
0.014249084568138469,0.03340540188421586,0.050742207378218454,0.00249766747302619,0.010712343510718864,0.030793975815827195,0.004814184704923944,0.0023938586677430145,0.0,0.0,0.0,0.0,0.0,0.0022870598565301143,0.00955949736518971,0.0,0.0,0.011369009135910966,0.0008109722383785695,0.0007214873163492548,0.001706332908027106,0.0005741787681580081,-0.0013331868053779547,0.0,0.0,0.0,0.0,0.004074188238284662,0.008684226595103789,-0.002026970933424177,0.0009362029180006253,0.0019254176071328048,0.005870698301345381,0.0,-9.593430433918834e-05
0.006991965604995032,-0.04500098339627401,-0.03330025779772812,0.005988458676425234,-0.009385131504138227,-0.015480611028604421,-0.004274296719304105,-0.003972750529794736,0.0,0.0,0.0,0.0,0.0,0.005903822931583279,0.006963207188641778,0.0,0.0,-0.016567836591227795,0.0008779101597664661,0.0006132829748071363,-0.00018983949511554985,0.0008096866453069145,-0.0010929639436926472,0.0,0.0,0.0,0.0,0.009290413906671638,-0.003870420014910556,-0.0019436704966047723,-0.003924780594801849,-0.004674995526256641,-0.00812068193737729,0.0,-0.0008473453565816811
-0.00693679263054499,0.03189628460789267,0.05694339325231117,-0.0016330246826296616,0.006006247013173179,0.022817786420378048,0.005376726810093714,0.006424269071858817,0.0,0.0,0.0,0.0,0.0,-0.023693190250545886,-0.01881913828692619,0.0,0.0,0.02499598307465064,-0.005523169474229776,-0.007254328411609313,-0.009042045842766423,0.00026275041941918224,-0.0005518092565578376,0.0,0.0,0.0,0.0,-0.002407449075611607,0.004421525605717434,-0.002483772143344379,-0.00038130161225911793,-0.004099304303082927,5.307422137954592e-05,0.0,-0.00014243475871774286
-0.004072386051037679,-0.040317658644586196,-0.03777231664446326,-0.005063391525972232,-0.006461945424753103,-0.014477985200923063,-0.004570202487585052,-0.007558123218690144,0.0,0.0,0.0,0.0,0.0,0.007190895213578814,0.0024229422212556566,0.0,0.0,-0.0010966318870765433,0.0007711187871092605,0.0004962656896682594,0.0015073817418848816,0.0010354467887287557,0.001840407242323789,0.0,0.0,0.0,0.0,-0.00440620049332817,-0.006170760684032664,-0.00149239153156767,-3.8686811752895156e-05,-0.0022475581966569028,-0.007578580538947668,0.0,-0.0004636046016517156
-0.0034249415959061347,-0.008909840920032223,-0.01934221068003919,-0.005940670241518689,-0.012639421022468915,-0.01956085953074265,-0.004938377212424708,-0.008127634385213705,0.0,0.0,0.0,0.0,0.0,0.0037108556469241188,-0.02519418515556031,0.0,0.0,-0.0003910531151602564,-0.0011771312159895967,0.0009231498028516875,0.00013179143656629017,-0.0004217129921320247,0.0022061269385762077,0.0,0.0,0.0,0.0,-0.004525359792612979,-0.009982810287549972,0.006554943356945444,0.007459931615474282,0.00981826214393274,0.003683682500791028,0.0,0.0030184920822789183
-0.0010313362729922068,-0.04784614276295721,-0.04304837332662217,-0.0028840875097457196,0.00967215821085684,0.017217199808082406,0.008329403874514002,0.0064138408434399555,0.0,0.0,0.0,0.0,0.0,-0.023363695540585504,0.012593234679876409,0.0,0.0,-0.034446681068585824,-0.013340222954434924,-0.0008140917907675505,0.001114862070372119,0.0009097095273628479,0.001312787813855257,0.0,0.0,0.0,0.0,-0.00299523294151512,0.008214875354937616,-0.0019367933700575825,-0.0030530894076732013,-0.006103139374956294,-0.0022344752671856483,0.0,-0.001703609039625575
-0.006565059258743699,-0.05058096299868854,-0.039518184860313575,-0.002973445100002608,0.004126776934181946,0.010989187603247711,-0.005394904584575388,-0.006008892469510139,0.0,0.0,0.0,0.0,0.0,0.015182755222094248,-0.021347017560381803,0.0,0.0,-0.019920025227916246,0.0015836381754313514,4.3580636835832894e-05,0.0009838215769426653,-0.0003898396316339808,-0.0019444494234792582,0.0,0.0,0.0,0.0,-0.004889005943704301,-0.0035455549839144436,-0.0014306915887395545,-0.004019050380805594,-0.007453396660977118,0.007576540655091286,0.0,-0.0028832825171053685
-0.0008647176370548374,-0.04629128521158368,-0.04431695062760079,-0.004922101553814287,-0.00832119716504133,0.011584054967825193,-0.005298888895466342,-0.0030391261432074442,0.0,0.0,0.0,0.0,0.0,0.005624536150961699,-0.004730051849876816,0.0,0.0,-0.022994362061334303,0.002155588724760871,-0.0010846533112842435,-0.0011582266125770798,0.0005519808437786477,-0.0015575853455008335,0.0,0.0,0.0,0.0,-0.0037757459385498442,-0.00443302384762185,-0.0015502010135323705,-0.0028519152920127304,-0.008445318213076827,-0.0008795598249203029,0.0,-0.0013795129439031352
0.0002551511493623597,0.029897165981876847,0.040852862112538926,-0.001008179988274495,0.011078747390423322,0.03303104624312413,0.005843217253542565,0.002275363214411282,0.0,0.0,0.0,0.0,0.0,0.022609442805448732,0.0014427400450571868,0.0,0.0,0.015605914513924847,0.011659613905869443,-0.01021136439034514,-0.0014774055736035065,0.0011675801493140044,0.0018606199011498962,0.0,0.0,0.0,0.0,-0.001893542203226716,0.008134773243422598,-0.0018480586133916162,0.0004059138751609104,0.003341411009789239,0.005991048383034786,0.0,-4.5866307961526923e-05
0.010418519005452185,-0.015591264341306674,-0.03355910840379716,-0.002304782788022012,0.004737526365515505,0.04357833976431094,0.0096492536823338,0.017750033157731375,0.0,0.0,0.0,0.0,0.0,-0.004394527659135797,-0.01641576645593249,0.0,0.0,-0.0014048688739863974,-0.003562276562606833,-0.006773044848466525,0.0010420526916469642,-0.0002502917980775328,0.0006753403614488496,0.0,0.0,0.0,0.0,-0.004126695309323521,0.006532066225637273,-0.0024508080980149964,-0.0013998675773888708,-0.005074804881935964,-0.00947632575559375,0.0,-0.001147440967491478
0.01009146414276188,-0.016465450524199718,-0.046371733916942645,0.0024677364087034993,-0.008666718789177992,0.01686414048188268,0.00722033032691846,0.0037417394132900576,0.0,0.0,0.0,0.0,0.0,-0.03283965678343616,-0.017498940905823043,0.0,0.0,-0.03155589359995489,-0.013704153743102245,-0.0018270399127901823,0.000335741770866458,0.0002031740908300878,-0.001262193444922509,0.0,0.0,0.0,0.0,0.0019976062036278857,0.007157255798660575,-0.00200553980606581,0.0002876981318272597,0.00387366226452583,-0.009200476849685,0.0,0.0008923445906750245
0.001400573097450876,0.037394432197930615,0.051491588336763906,-0.001973910664985077,0.005329374780690142,0.02791499610777617,0.011667764168020059,0.004608863983675238,0.0,0.0,0.0,0.0,0.0,0.01592192061997348,0.005267553260625117,0.0,0.0,0.019835549153538044,0.004126199182853737,-0.0007110464607805915,-0.0008396750765068887,-0.002291873570325049,-0.0007712256368797386,0.0,0.0,0.0,0.0,-0.004501056395019642,0.011125632492354705,0.0028162844498849367,0.004029825423036468,0.006721366644455866,-0.0023133117958128143,0.0,0.0021068303215968274
0.010501170471099776,0.03068539812020501,0.03830514536957933,0.0017229598857881208,0.010232919498894662,-0.020952805067024627,-0.0038575092705119963,-0.0025012750625864936,0.0,0.0,0.0,0.0,0.0,0.0025087357264193103,0.015963042280393067,0.0,0.0,0.0005220490670753132,-0.0011775261945883456,0.002933312572999096,0.002274290487977705,0.0007308255210761659,0.0020002194544076687,0.0,0.0,0.0,0.0,0.004280908152651262,-0.007910789313499584,-0.0018475547057270505,-0.0034933471910711614,-0.007038302560375132,0.006837625919408551,0.0,-0.0023487074133758177
-0.006398823529620976,0.044396427704413925,0.05781581855790097,-0.0019094265236654373,0.005373808483046263,-0.011343971879649882,-0.005690706153319538,-0.010346425383438322,0.0,0.0,0.0,0.0,0.0,0.0024943493759419532,0.015404828768574809,0.0,0.0,0.013793395432549144,-3.748433159956789e-05,0.0022432254381577754,0.0025171632028009967,0.0007127694931009456,-3.293577018700834e-05,0.0,0.0,0.0,0.0,-0.004673915581705299,-0.008627225356701032,-0.0017375905317079672,-0.003748219534140505,-0.006499602645830702,-0.0013303412830198706,0.0,-0.0015908793855037068
-0.008739056220406684,0.038027049291948556,0.06074520772302601,0.0010277720042849525,-0.015047394157561749,-0.018666563402352176,-0.005834332095993087,-0.00346941805512418,0.0,0.0,0.0,0.0,0.0,0.01581535930430878,-0.013811438331320206,0.0,0.0,0.018743400748079005,0.011219344981781133,0.0027806760941406924,0.0031550438511757073,-0.0017517731106685814,-0.0008872836033510872,0.0,0.0,0.0,0.0,0.0003989542527077751,-0.005831406805934697,0.003163110843557184,0.003584442688419888,0.0075674880511574895,0.0028113539194269573,0.0,0.0027142271596546754
-0.007589839085035261,0.0385470486092759,0.052647025663835736,0.002669418270728898,0.006544911177449166,-0.018271677950319653,-0.005590069643585488,-0.0012567376142233358,0.0,0.0,0.0,0.0,0.0,0.02086750705276114,0.015134689084327238,0.0,0.0,0.014959998721029176,0.010118302624644087,-0.001053981307473731,0.002049737863035829,0.0009690804308008236,-0.0002871989993736686,0.0,0.0,0.0,0.0,0.0024964437944124044,-0.007885044712151524,-0.002138640904973091,-0.00308661860593543,-0.007157705731106817,0.0007551403882938826,0.0,-0.0011693599215400496
-0.010065187833205874,0.008386874786165208,0.01593388390999476,0.005572364499538331,-0.017088046984151294,-0.02033045521126579,-0.005793359918174794,-0.0015691885581017037,0.0,0.0,0.0,0.0,0.0,0.0036362326372583564,-0.021841370020305253,0.0,0.0,0.012716653684299811,0.006348407300491669,0.00027860767878844515,-0.00187005679409925,-0.002203111046956576,-0.0011316500887362867,0.0,0.0,0.0,0.0,0.0052759233431686715,-0.0069600105888435355,0.004946158981971715,0.0065223675206997,0.007699766270953269,0.0036563317140172477,0.0,0.003078203796815197
-0.006979695259000962,0.03330475792925038,0.053268847086545806,0.002053376259897384,-0.010184897281586362,-0.020089181957688704,-0.005254932725821344,-0.003230861362241403,0.0,0.0,0.0,0.0,0.0,0.004286110825856134,0.013330742155124538,0.0,0.0,0.015496392579586243,0.005622553683682009,0.00029608547146550907,0.0019352254740950842,0.00042929926311630306,-0.00024020159930100216,0.0,0.0,0.0,0.0,0.003943806130833508,-0.006639687549450669,-0.0022328372217365017,0.00043876328268198313,0.0038167210049463536,0.0016576756397702836,0.0,6.109987105375146e-05
0.007830366454400715,0.03092662273470986,0.016519571821854064,0.003733976909668377,0.010294558195459016,-0.0190917750533766,-0.0028635456612928043,0.002554230797904669,0.0,0.0,0.0,0.0,0.0,0.0035843745791531317,0.014699758756358013,0.0,0.0,0.0003242025562304825,-0.0017666583642210508,-0.0017295431431532894,-0.0058320793711768145,0.0005491148644679353,-0.0009565259015234216,0.0,0.0,0.0,0.0,0.00392364900064177,-0.0045135455362660774,-0.002118789180798338,-0.0031882952893288177,-0.0073029950766579,0.0028868243439359514,0.0,-0.0025671435995405214
-0.0009614405019283863,-0.018613624131046832,-0.03440583741810982,0.0036369202972079276,0.008937302090428199,0.03774464020314838,-0.003330494842106267,0.0017913120163021352,0.0,0.0,0.0,0.0,0.0,0.019083937249004247,0.012891941742713983,0.0,0.0,0.0027270140761431515,0.0006304561583328109,0.0008278558500575432,0.0020522502226270234,0.0004786117729032666,0.0010377538882306143,0.0,0.0,0.0,0.0,0.005123853277604489,-0.003224132308475036,-0.0019552269481513656,-0.0020618393165520404,0.002979424872329922,0.005439162433279891,0.0,-0.0014586513702303026
-0.004877569507582314,-0.02084707483192364,-0.03579508114501904,0.0036280954072282923,0.005034290128019463,0.01964308480551137,-0.002327082211177578,0.001542601726684907,0.0,0.0,0.0,0.0,0.0,0.015538665121991077,0.0056758723356295756,0.0,0.0,0.0003091401840661256,0.001178919434865789,0.003984401152254251,0.0001269070680419342,-0.0037361932433783943,-0.0021730254391384277,0.0,0.0,0.0,0.0,0.010758288541766702,-0.0003459805031622056,-0.0016423878841466094,-0.002775818930413578,-0.007517325652072698,0.0037512694271538915,0.0,-0.001080041460325245
0.0007963855593774505,0.03520219923959576,0.04844284140802046,0.0031824879392573207,0.010821066441377501,0.029805708370792144,-0.0049643569923888105,0.003387754578582151,0.0,0.0,0.0,0.0,0.0,0.023181821922882883,0.010638622710974982,0.0,0.0,0.011351841706623464,0.006180388341042471,0.0002963969473454064,-0.0015955263946984596,-0.00025254152962934164,0.000805977911311286,0.0,0.0,0.0,0.0,0.0056471982387849805,-0.005101921508946478,-0.0014580179319136641,0.0012987119492740406,0.0029508456136361078,0.0048697767726471695,0.0,0.00021020125424628985
0.0032111160748754864,0.036432843832509644,0.04920296844707866,-0.0011648210185118426,0.008750995081377715,0.02857142175806188,-0.005346003398030324,0.0047181573161972,0.0,0.0,0.0,0.0,0.0,0.0051838887399851055,0.006634942391007083,0.0,0.0,0.011504095392171742,0.0011925714951028842,0.004558471639431283,0.0018350317587087991,0.0003786927140573819,-0.0006867453863803064,0.0,0.0,0.0,0.0,-0.0018415219885676917,0.006971719637581416,-0.001701874490502486,-0.0009822060111653794,-0.0028452669947581642,0.0007543816969357203,0.0,-0.0008112029728999714
0.010109375838012987,-0.018596611724964563,-0.03360435218721648,0.0016707016328414955,0.00281852679351084,-0.0189776910849739,-0.003817516153393721,-0.004399666407023541,0.0,0.0,0.0,0.0,0.0,0.005406938711313608,0.014890977110958797,0.0,0.0,0.0008410079118333579,0.001212720708339019,0.002129288549503879,0.0013054889916261768,0.00011634264129363642,0.0020421267025952016,0.0,0.0,0.0,0.0,6.22214575552696e-05,-0.0030706130703522304,-0.0019031049344234018,-0.0038467639440306137,-0.007953800041273799,0.002911323774468577,0.0,-0.0023615717583502223
-0.0015550044733884008,-0.020671462615204052,-0.03634001229338866,-0.005151403471792772,-0.011237642954053759,-0.021189413215083042,-0.002718258389043303,-0.003533393943512347,0.0,0.0,0.0,0.0,0.0,0.005148708296914781,-0.013907723086693906,0.0,0.0,0.0007123658376408984,-0.0007221260041996147,0.00047741266672389623,0.0006224738493013061,-0.00035369377395647137,-0.0012692764950888878,0.0,0.0,0.0,0.0,-0.003850683500595438,-0.0012486798399429834,-0.0017291127944439038,-0.0001260004378455727,-0.0033928797816637187,-0.003417943772401272,0.0,-0.00017573274419933308
-0.003240889876042783,-0.04535894210768302,-0.03654259402529497,-0.003275088267324753,-0.008456910236106863,-0.018546348437354865,0.0061034421467134874,0.01080437736599729,0.0,0.0,0.0,0.0,0.0,-0.02947997782258314,-0.000876267333330871,0.0,0.0,-0.024266804961910304,-0.00655174548224384,0.0005755247293512584,0.0009419001537150041,0.0007814581456038143,0.0010357790270067845,0.0,0.0,0.0,0.0,-0.003921035144236148,0.005294543768697173,-0.0020497120896575453,-0.0009482312084939991,-0.0018537048083988273,0.0022440754820739015,0.0,-0.001070063937216256
0.0028994832758474564,0.03922759570463621,0.056463927062612725,0.0017633799042971838,0.008430767025508363,0.02781596312247208,0.011466900661129271,0.010995146582832254,0.0,0.0,0.0,0.0,0.0,0.003785764152909876,0.007781560644252303,0.0,0.0,0.021075958851704192,0.0007837582195742913,0.004038393136942022,-0.0019651130885700785,-0.0011656253270506845,-0.0008228642827308704,0.0,0.0,0.0,0.0,0.0010068849153111127,0.00488347204503404,-0.0017621644657000108,0.001183549875280218,0.00404682796005455,-0.0005857645377909611,0.0,0.0017078913659172514
-0.007578574835991536,-0.0530577868067699,-0.04039001372239677,-0.0021661146012226847,0.009361381617713948,0.03737582951839232,0.007702577405070772,0.004820154789090702,0.0,0.0,0.0,0.0,0.0,0.02101661652926409,0.006511832292639149,0.0,0.0,0.006587120291121422,0.0055300881311684405,-0.0023837494868794574,-0.005591941503076053,-0.009693311295217121,-0.0010413142071094314,0.0,0.0,0.0,0.0,-0.0030762458827495297,0.011002406293989318,-0.00232119748573227,-0.0023156350808549884,-0.006338522865164286,0.007335956100548739,0.0,-0.0019871403053492095
0.014343496076517753,-0.043776520102061615,-0.04382653321711025,-0.003094992002079079,0.01086194790075889,0.04282766416986541,0.013951175058837873,0.013115418604898031,0.0,0.0,0.0,0.0,0.0,0.006341229475298481,-0.0167823566888906,0.0,0.0,-0.017183713211077454,0.0027467986519048495,-0.0044902175426174435,0.0004081109607534783,-0.0015571443005031084,0.0021971309620328907,0.0,0.0,0.0,0.0,-0.004210102004543478,0.007263944341027142,-0.0022358581804013925,0.00022005969514377895,0.004726736981021976,-0.0012696399143065828,0.0,-0.00027006879451466076
0.010661771688864952,0.041695019566199254,0.05764014699655612,-0.0016465170861213305,0.007007628881569554,0.011305049141597646,0.010889282035295577,0.0032456244276880737,0.0,0.0,0.0,0.0,0.0,0.02313004897226326,0.011696860021459681,0.0,0.0,0.013106446552029924,0.009570977212739954,-0.002161353982663755,-0.0013457876370182986,0.0005508049768913582,-0.0003072629656357554,0.0,0.0,0.0,0.0,-0.003702577045674193,0.012009163437956919,-0.0019008723351707538,-0.004694649183893686,-0.0055136120367138075,0.007113388226819811,0.0,-0.002340189101024032
0.005418796071820492,-0.04680544104128886,-0.04507614396324853,0.0016391614036786952,0.004617601324410772,0.01547659235039486,-0.0042460698485179025,-0.004557160401208672,0.0,0.0,0.0,0.0,0.0,-0.030719522840063854,-0.014386666027099008,0.0,0.0,-0.027878179009346044,-0.015292717042247165,-0.0011612510445995416,0.0014292303613224378,0.0005310231732306983,-0.0009725811809109223,0.0,0.0,0.0,0.0,0.0015738456511814212,-0.0003605286584463425,-0.0017155408507916717,0.00023933553433896047,0.004286473039862836,-0.010670424187658314,0.0,4.769226990350024e-05
0.012894976421584714,-0.047060521297870944,-0.047316220632602254,-0.0019921606274662814,0.0027114759879933803,0.04391653125916433,0.008435018057089563,0.005162974372273713,0.0,0.0,0.0,0.0,0.0,0.016700273152704278,-0.01587544259690862,0.0,0.0,-0.02525170372729198,6.407750899736227e-05,-0.0005776845633833484,0.0010810246164456344,9.513269714746047e-05,-0.0006109755886332775,0.0,0.0,0.0,0.0,-0.005129117188923726,0.009985776551611352,-0.0020582789551043044,0.0006613005719711037,0.0019167462186765792,-0.006189181159447925,0.0,-0.0001952750494516426
-0.0004489062114160722,-0.03576545169108468,0.021737192726809094,0.0004884397168012439,-0.006664334510507038,-0.020328160483507763,0.008323247111608333,0.009045009114776166,0.0,0.0,0.0,0.0,0.0,0.005938565019470751,0.005271247533498225,0.0,0.0,-0.029757870197740843,-0.0002707878317912888,0.0006356083426260039,-0.002256784767854341,0.0011251724482533435,0.0004179080496661951,0.0,0.0,0.0,0.0,0.00187947296724893,0.009419849599334711,0.006697510502472151,0.004030801365052068,0.009895442822695246,-0.010716825657997277,0.0,0.004051402373961883
0.012654032875862404,0.010300679232040673,0.04840923389305653,0.0018960690309002483,0.008837871725634628,0.007567572562306641,0.006554194207168637,0.0025906297310854184,0.0,0.0,0.0,0.0,0.0,0.005333801162545831,0.01650513789596252,0.0,0.0,-0.03239599893373569,0.0004973037225183593,-0.011756566857002711,0.004049653929132919,0.0004492681307070985,-0.0016596581101117577,0.0,0.0,0.0,0.0,0.000927475631021612,0.0066670186793197665,0.002489735730223748,0.0005811679168227317,-0.0018855423374381324,0.008039776299011555,0.0,7.500372494193043e-05
0.014973199324417751,-0.0015766359853759235,-0.038742098804152386,-0.004471179460266029,-0.013219274282286095,-0.012111626961101463,-0.0033624844193039776,-0.0007333936501819448,0.0,0.0,0.0,0.0,0.0,-0.004789518514680638,0.008512325396567186,0.0,0.0,0.021564588646617717,-0.00651624149251012,0.0010787507580414437,-0.0017758270794410393,-8.550498494190329e-05,0.0013635130461773332,0.0,0.0,0.0,0.0,-0.00439005752534431,-0.0019428362828880592,-0.0015796054865083583,-0.00217943992893262,-0.007479256473586124,-0.0050048873206893765,0.0,-0.0013429523655134564
0.016920247301518105,-0.037647952488338236,-0.031205469672373816,-0.004161626630123037,0.01200296833305854,0.040972852535532636,-0.009705630991664719,-0.014549113614819935,0.0,0.0,0.0,0.0,0.0,-0.021291751454196896,0.014710057903334765,0.0,0.0,0.0166611819711365,-0.0064241701604755685,-0.004657941901730092,0.003070549370810944,-0.0032030379668176647,-0.0014382305107087279,0.0,0.0,0.0,0.0,-0.005076479582485965,-0.0044749599444403555,-0.0007902634335430141,-0.00459944203969457,-0.007104184092069885,0.008622741692673611,0.0,-0.0024056640853387674
0.014564673504560314,-0.03374831113930379,-0.003010790797510895,0.005818882193871319,0.011803519741132036,0.03669726962447789,-0.007824338499098912,-0.010593760634856291,0.0,0.0,0.0,0.0,0.0,0.005224159586846232,0.01051804312921282,0.0,0.0,0.016825980217682675,0.01482010277480687,0.003969233740773443,0.0014090434332843715,0.00011908009402058033,0.0019896475630011125,0.0,0.0,0.0,0.0,0.004659920695203099,-0.009574585446935652,0.005296924824473245,0.0013615556004801274,0.004186273907378159,0.008353767764877774,0.0,0.0003734271331823061
0.013268537783938847,-0.035451492041099944,-0.03105214234550749,0.007028346696057416,0.010266540248193855,-0.015663317498119122,-0.007725762548653184,-0.007760224245096672,0.0,0.0,0.0,0.0,0.0,-0.009114092700684855,0.015846293939457377,0.0,0.0,0.017850520352052025,-0.004991570612699988,0.005218717170696293,0.0030394262712454133,0.0004482473306153139,0.0018978755329624223,0.0,0.0,0.0,0.0,0.008499313943926045,-0.0046107101569064736,-0.0011073618593001268,0.0013357180468556047,0.005708527314229593,0.010349759066072635,0.0,0.0005938280903602636
0.01270806145276482,-0.035255208808742514,-0.011134174490571445,-0.003757215281761528,0.020909793047715165,0.044014579856064634,0.012213058631472611,0.008697390489103259,0.0,0.0,0.0,0.0,0.0,0.017012539225932776,0.01451098989087678,0.0,0.0,0.006878689915712897,0.015924956426494823,0.0008791233295316474,0.0014230847783763198,0.0003789739071981042,-0.0010271618741503018,0.0,0.0,0.0,0.0,-0.004162945516028992,0.007540251221377791,0.0013349349094083508,-0.003075332604298344,0.006450348621377935,0.0009066529854159694,0.0,-0.001198797801830767
0.015375389514783547,-0.01944400005946596,-0.011554350927693845,0.003922561509274279,0.009722420046231117,-0.017762628394508807,0.008373756119865796,0.008871507939159152,0.0,0.0,0.0,0.0,0.0,0.006512086440179656,0.015274842039584683,0.0,0.0,0.0003631353284881305,0.005171095545059145,0.0014063528503844734,-0.0012087591133034849,0.0005867738364475415,7.253951544134808e-05,0.0,0.0,0.0,0.0,0.006003773378308679,0.006072354377310723,-0.0009706219050544192,-0.001409638168771218,-0.0065974069108455215,0.005250224855246344,0.0,-0.002288588937731562
0.011982277487866478,-0.0383326946077985,-0.0036472956612120223,-0.0061645977011002715,-0.008594040238069216,-0.020094157800669494,-0.006904529278566616,-0.008004760466381742,0.0,0.0,0.0,0.0,0.0,0.008383369391472247,-0.0017430080316974867,0.0,0.0,0.014022507483418269,0.00295909860767224,0.0008117899894042716,0.0014044252882581783,0.00037430706202961137,0.0017920864168830882,0.0,0.0,0.0,0.0,-0.004595991174906937,-0.0034628593548828406,0.000260015814605625,0.000676046956844107,0.004394170790045679,-0.013045596635759892,0.0,0.0006881302260831638
0.010643051000509478,-0.039767589721072576,-0.026307692848691402,0.0022765084266469105,0.012029112660889012,0.03697179286489854,-0.0031091581474125747,0.0015784953436201198,0.0,0.0,0.0,0.0,0.0,0.004415201797519579,0.015905315504854557,0.0,0.0,0.018912298045147744,0.0021563760615760583,0.005009165492604967,0.00046541101494951254,-0.0024319127477795037,-0.001083599714243437,0.0,0.0,0.0,0.0,0.002447803495072442,0.003099209447939476,0.003390973079176453,0.00037572610904181627,0.003468415376383751,-0.0017156094226142347,0.0,0.0007298057937776442
0.009482584982008222,0.02234377265388834,-0.04715746366829446,0.002330836940128193,0.017080494076344693,0.03937183023083238,0.010203585404948633,0.00624126503826236,0.0,0.0,0.0,0.0,0.0,-0.012833986769481455,0.015170242589991258,0.0,0.0,0.017558033956538686,6.216104897915788e-05,0.006014383718689274,0.0039481158917325015,0.000752334608844107,-0.0001542981405483334,0.0,0.0,0.0,0.0,0.0016293523228600427,0.0039250550011420545,0.004900632541448694,0.0006666883679769288,-0.004436731535996701,-0.003240708736285791,0.0,0.000264686856555187
-0.0010961800887274377,-0.039590588753421925,-0.027535273567148782,-0.0036958974745822217,0.009276624808281718,0.032677682760560024,-0.006178580235257347,0.0032538339874414357,0.0,0.0,0.0,0.0,0.0,0.006555440984862394,0.013679974307235495,0.0,0.0,0.005955804546547045,0.007534759132352757,0.0013521892886802882,0.0012625577621807348,0.0004922084578329524,-0.0014985038541689899,0.0,0.0,0.0,0.0,-0.0039555686979494175,-0.0022630326187997193,0.0007987973321152906,-0.004328182193843957,-0.0072126287998503895,0.001383645647052462,0.0,-0.0011013605129687248
-0.012039550292118778,-0.017431152177251573,-0.03203016650598663,-0.004383096377163489,0.011808111038438129,0.042397714104052464,-0.00625174529959228,-0.0062558327527079205,0.0,0.0,0.0,0.0,0.0,-0.01974433869571433,0.015028110699305352,0.0,0.0,0.0165064180250905,-0.007147284451526429,0.0006887661827230172,-0.0012267167472305733,0.0008563339534267167,0.002188903346615903,0.0,0.0,0.0,0.0,-0.00272225845246322,-0.0011455966867528298,-0.00010447106415404157,0.0077096565622720185,0.00897408087884849,0.00011795742084971041,0.0,0.0031346482038527995
0.0042230971601596905,0.03313487882860659,-0.04717237348984606,0.002488980698094987,-0.01862968156038205,-0.026768098955738975,0.011017742717139763,0.011312320982307549,0.0,0.0,0.0,0.0,0.0,-0.016845983731806614,-0.0243428006452606,0.0,0.0,0.013003044965982244,-0.007061361165801873,-5.3226846944065615e-05,-0.004601016063886974,0.00033253920211128774,-0.0002672684005683133,0.0,0.0,0.0,0.0,0.001185610849752421,0.006698147485784198,-0.0005710762923274727,1.5362838781172993e-05,-0.002481185617528796,0.002343424976802499,0.0,-0.0009288648540681882
-0.013359211842686054,-0.035873694476895174,-0.03013912879072778,0.005032360119661794,0.014680709432263793,0.038107470380441655,0.009138204839819215,0.00944365626246708,0.0,0.0,0.0,0.0,0.0,-0.010123950337088312,0.010101824891374912,0.0,0.0,0.01725264012788867,-0.009547729139832881,-0.004514229526771102,0.0007010154181732654,0.0003143946077839822,-0.0009058436840986945,0.0,0.0,0.0,0.0,0.0033845417309191672,0.005438235299711631,-0.002324242679899201,-0.001211843656158122,0.00530996860871002,0.005822360752539836,0.0,-0.0005539325151898078
-0.002299633555806603,-0.023162162873867208,0.017468383680927804,0.005837307483289733,-0.005273891431704893,0.006538501182726011,0.012533887334558663,0.012586212165002466,0.0,0.0,0.0,0.0,0.0,0.0052278627244935275,-0.0014202898986094368,0.0,0.0,-0.028101819407598264,0.00017528921115454596,0.0006316518456792945,-0.0013195987887484341,0.0011437820018375374,-0.0010332442947119697,0.0,0.0,0.0,0.0,0.0051638324699415745,0.008219490978226246,-9.57314818727388e-05,0.008595043545025422,0.009633336994688588,-0.004430773242130449,0.0,0.005489614945292371
-0.010300801508393168,0.020973405252548143,-0.04080895676516589,0.006707722649243849,0.010809776816938194,0.015027944082127298,-0.002690767684436449,-0.00961633116945277,0.0,0.0,0.0,0.0,0.0,-0.019899050961922484,0.014658280384123222,0.0,0.0,0.019895639522436396,-0.007138790693228744,0.004389786273644185,0.0011280217702587887,0.0005138922342952395,0.001032197302175387,0.0,0.0,0.0,0.0,0.004776549791215953,0.00231022589703029,-0.0017635870910848743,0.005445919966228507,0.005273694922506859,0.00820994782248747,0.0,0.003663471125960085
-0.009933820787931882,0.022429600271181127,0.037068601910910916,-0.004228637648110478,-0.013940163262541879,0.022320570822218416,-0.0068447451995307905,-0.011064523947081767,0.0,0.0,0.0,0.0,0.0,0.01990572941260157,7.963472763854187e-05,0.0,0.0,-0.023615856205174212,0.010746669958014323,-0.00026524911946312446,-0.0029656614171599377,-0.00013335881384013307,-0.0012564686651290683,0.0,0.0,0.0,0.0,-0.004512362907690089,-0.005582882976879854,-0.0009297961550408377,0.003131481152305864,0.008138902914515071,0.006228456909654631,0.0,0.0019190022039844293
-0.012234468577284646,-0.015481969633649598,-0.0325197131162452,0.009233442666614054,0.01408988994178017,0.03693002298684564,-0.003938165420091413,-0.00834853432643753,0.0,0.0,0.0,0.0,0.0,-0.009545754600406691,0.015222869353864778,0.0,0.0,0.018497901221558546,-0.006837005000257171,0.005794704131585799,0.0018020872723933181,0.0010122105814511174,0.00039420119006354916,0.0,0.0,0.0,0.0,0.00528050985775043,0.001146212696677705,0.007557177098261152,0.002602432138074635,0.009667361909096615,-0.001207088291789774,0.0,0.0016116067982025108
-0.011373545876530954,-0.021588533446807615,-0.030379182409755057,0.0019298381793487456,0.018376268297646443,0.03635413155924799,-0.004454923243697173,0.0035623876153122406,0.0,0.0,0.0,0.0,0.0,-0.0058988978947277625,0.01123905543000085,0.0,0.0,0.00808590647450351,0.001717657066899157,-0.01586071018986761,0.0027934996094305035,0.0004094498115974076,-0.0006825657744838227,0.0,0.0,0.0,0.0,0.0015873190206963914,0.002103331052503839,0.00011087742614597883,-0.0012221341160412312,-0.006201613255359167,0.00039581575980407853,0.0,-0.0009944628512878716
0.010299349270662493,0.03524367535842424,0.053316085773856145,0.004228010037392291,-0.022618923541725434,-0.0295510947250125,0.009602768664512372,0.009680352451614865,0.0,0.0,0.0,0.0,0.0,0.01295597086704742,-0.030369067079700635,0.0,0.0,0.000463389336201858,0.012697214771608805,-0.00046458701651323796,-0.005412294923384486,0.0008761163637401058,0.001020371255499966,0.0,0.0,0.0,0.0,0.00553741472385295,0.012566371984672036,-0.0007034491203523728,-0.001939270712567587,-0.007090888818537602,0.0031640348797955086,0.0,-0.0014215636275712986
0.010700238259625686,0.02980117719132595,0.05274520882724324,0.0019478248932591966,-0.020209250022942812,-0.027326611072955517,0.010490471910708902,0.011978925827200297,0.0,0.0,0.0,0.0,0.0,0.016828629987296524,-0.026147930609807166,0.0,0.0,-0.004397600751624271,0.0075882166255255325,-0.00026215453157965503,0.0012357039007993855,0.0009995838356560308,0.001966836601170858,0.0,0.0,0.0,0.0,0.001369359306779796,0.009228852616753365,-0.0003299529661193931,7.703644193351158e-05,-0.0021601301577747244,-0.0042758922291689745,0.0,-5.097732709454234e-05
-0.0014499238564854356,0.02160004386223976,0.018386046896071137,-0.00457587565083849,-0.01965728397909195,-0.02581610787521533,-0.002499273556021699,0.0023681152448757617,0.0,0.0,0.0,0.0,0.0,0.004883816420351088,-0.029371294640924892,0.0,0.0,0.0011288961058189624,-0.0006791118879981447,-0.00046652237566924536,-0.004516626351380788,-0.000166066062144657,-0.0006991749343737162,0.0,0.0,0.0,0.0,-0.004305729955216177,0.0013158073824147618,-0.00017830356906919115,0.0018940205451666438,0.007252239460799095,-0.015438541879637894,0.0,0.002371791062135849
-0.003417715323722198,0.04041068623872005,0.06190465620333931,-0.002631985738566715,-0.01858862886603508,-0.024466299263471682,0.010241828210165796,0.010215601686936046,0.0,0.0,0.0,0.0,0.0,0.019537167840937647,-0.023479541740575826,0.0,0.0,-0.02903818450109888,0.0008162813029202007,-0.00026611508997176293,-0.004405063170606852,-0.0018652218415431323,-0.0009334867023136287,0.0,0.0,0.0,0.0,-0.0025726505019246955,0.0091912676834102,-0.0011651556508052378,-0.0019053401734321722,-0.0062271963349116565,0.003092387612212695,0.0,-0.000978167775668839
-0.006954971776739139,-0.014430045112720568,0.05111590760274938,-0.0016312008139155515,-0.011348572266929603,-0.02208846299529419,-0.0035160035382901596,0.005309414954904273,0.0,0.0,0.0,0.0,0.0,0.010976078540681241,-0.025334025338704467,0.0,0.0,-0.028019992653213005,-0.0064699572866282725,8.205249088348553e-05,-0.0022573379166655567,0.001261001426476202,-0.0004942877335955906,0.0,0.0,0.0,0.0,-0.0014789996613820567,0.0034830316690486252,0.0029187720611882923,0.0015058207783022848,0.00816047131576952,0.004010227746961847,0.0,0.0009598975890344998
-0.0030878873696220483,0.03745272962622692,0.06288167326118496,0.001746732621121922,-0.010055375431426053,-0.023224770038868265,0.002030652287962207,0.01019816056943343,0.0,0.0,0.0,0.0,0.0,0.019035354625578395,-0.020594874569997246,0.0,0.0,-0.02761947026553704,0.0015644854792856136,0.00012680055666927458,-0.0038342294215254267,-0.0003440422102171688,0.0013976427979406196,0.0,0.0,0.0,0.0,0.0007641606721066498,0.004091254919616526,0.002451447099350036,-0.0024995086446846456,-0.0065143375797576016,0.0074807136608526946,0.0,-0.0025243550584136084
-0.007196819118628092,-0.0408440959451339,-0.02639924334120182,0.002281504732829146,-0.010155856233828702,-0.021870243332864643,-0.004581879124502512,0.0036540191487159385,0.0,0.0,0.0,0.0,0.0,0.007637398531108291,0.00034849371035344107,0.0,0.0,0.017892136286840783,0.0014351956381678306,0.00211144074279331,0.0009417351909434938,0.0006243703811142117,-0.0014700473672672324,0.0,0.0,0.0,0.0,0.0014805827445066942,0.003081069661183109,-0.0014524037549735068,-0.004700347580987698,-0.007013649785704427,0.008379416285530943,0.0,-0.0022803291122236477
-0.0010502648875439675,0.02387848572338346,0.0550976410734193,0.002347830584833618,0.003560870392418757,-0.019493783654343424,-0.00611630138082249,-0.009923358420060311,0.0,0.0,0.0,0.0,0.0,0.0038577659858301354,0.016335250256222737,0.0,0.0,-0.0281113255508863,0.0005083118891007598,0.0009089618265326149,-0.003963464926805761,0.0006058485012224422,0.0015584888107054032,0.0,0.0,0.0,0.0,0.0018686959537547708,-0.0047688208766025015,0.0021161550406252837,-0.0001732863401709959,0.006195500910389902,0.002447211770716501,0.0,0.0003898574293575368
0.003625417118841506,0.03575271191933344,0.057582442708717346,0.0006789645018180941,-0.018276999259105326,-0.024192121347097955,-0.006538054715691978,-0.009835662147326807,0.0,0.0,0.0,0.0,0.0,0.017970475369315998,-0.02676360243358575,0.0,0.0,-0.025950506495725178,0.01384406667637407,0.0003407718887265091,0.0017469739710499362,0.0006524288151137309,0.0009710494839496994,0.0,0.0,0.0,0.0,-0.0010239430154574544,-0.005314737340286368,-0.0006508994418763487,-0.003346059524051373,-0.00939110182396548,0.005558237243989581,0.0,-0.0023142612597145144
0.015471470377390679,-0.020673364679797752,-0.03313305414848308,0.006226322348604396,0.004260438247798669,-0.019671986775908954,-0.003417650424560518,0.0031372420225121043,0.0,0.0,0.0,0.0,0.0,-0.011959156298068936,0.013959390926527,0.0,0.0,0.02040461370939085,-0.004813969347954456,0.002589618400018983,0.0004536309964960185,0.00018739377675797833,0.001353949030110461,0.0,0.0,0.0,0.0,0.006110969526887843,0.0012375428501479767,0.005582719929213935,-0.00010731443936435997,-0.006699428048615532,0.00210401009386963,0.0,-0.00019666988147310928
0.012916631070514745,0.042290228407009044,0.056611516809765824,0.0012089127525959542,0.005343494875531185,-0.013346921221194463,0.009952322503874763,0.009755608957685602,0.0,0.0,0.0,0.0,0.0,0.020668591267423715,0.015159030024432722,0.0,0.0,-0.030121207165803226,0.0013881277292113804,-0.0005063531967416735,0.0018948083370002146,-0.005674083719491701,-0.0019352105672803604,0.0,0.0,0.0,0.0,0.001108075711435722,0.007098994097627557,0.000990588160285275,-0.002685218042154689,-0.006834520699288026,0.004878343589487284,0.0,-0.0015797747674539937
0.016310265934048156,0.0380177295087578,0.05558987822885674,0.0033408040439598806,0.008728625342457242,0.010417482732760013,0.0067160036728407,0.005645294048074952,0.0,0.0,0.0,0.0,0.0,0.004275180574073331,0.015518120993474199,0.0,0.0,-0.03209410244320035,0.0028555854768276805,-0.009768913913438048,0.004076342051743681,0.0007310620479105724,-0.0006002022668802736,0.0,0.0,0.0,0.0,0.003167885718861365,0.0063542306056134186,0.0023234286101208937,8.701850939277896e-05,-0.0025226293083373203,0.007757154387275025,0.0,-0.0005131860186815607
0.014787451258474941,0.0019233908767957535,-0.03942870933483316,-0.0036041227505425487,-0.005661711710849367,-0.02059602050288862,-0.007462467531302601,-0.005787578073038923,0.0,0.0,0.0,0.0,0.0,-0.025186228968336544,0.006444233206165262,0.0,0.0,0.0145445835241808,-0.007234069264797389,0.0009871285101851301,-0.0012172049373483757,0.0004914951638131781,0.0016446812023250398,0.0,0.0,0.0,0.0,-0.003632436376646806,-0.004657930452791217,-0.0003967305246821651,-0.0016983356154542076,0.002426889727488493,0.002524242665590535,0.0,-0.0012548378632403086
0.01213930853463654,-0.00932502917554926,0.045326043965813426,0.006295903050554156,-0.01526135108402646,-0.0023206321649889014,0.01019508859425384,0.011020115018740602,0.0,0.0,0.0,0.0,0.0,0.005535414920703456,-0.024049102376968057,0.0,0.0,-0.023324910472595987,0.005379213659530456,0.00036554954534788616,-0.0015866093032534296,0.0006243879995073893,0.002122762704059396,0.0,0.0,0.0,0.0,0.004168642376129915,0.008274521576019262,0.0038337762884967054,0.00432219652448395,0.005339959846323806,-0.015060540612206632,0.0,0.00374578754045201
-0.008222182945043338,-0.016445004607404334,-0.03604533348778132,-0.007417187723908829,-0.013803372275783994,-0.018815752742243695,-0.007312035880180728,-0.0069343260527623286,0.0,0.0,0.0,0.0,0.0,-0.018450857232813707,-0.015500993279145276,0.0,0.0,0.016523241070772337,-0.00784066091096751,2.794004857834674e-05,0.0014486507848690067,-0.0002700315196217977,-0.0013260438266950317,0.0,0.0,0.0,0.0,-0.005433215236740721,-0.009261121636847234,-0.001495222298036284,0.004277618646269823,0.007963294879042777,0.0011455972984344793,0.0,0.0026461333049171204
-0.010982073908969912,-0.018415018367061595,-0.03662157831696953,-0.005634200700664888,0.005105343980866471,-0.01947712012390888,-0.00671280115920442,-0.010772157733739908,0.0,0.0,0.0,0.0,0.0,-0.012872366729880225,0.015009753929535987,0.0,0.0,0.019590293450124613,-0.003307451226616852,-0.00029512093681019534,-0.0016889148641493165,0.0004927375710740703,0.0014854357785771823,0.0,0.0,0.0,0.0,-0.00454960195341054,-0.008220844247767504,-0.0011734157977219461,-0.004104188196992097,-0.007540825225855565,0.004080344470439595,0.0,-0.0022750381231692865
-0.006494315364065092,-0.012965875843756353,-0.03710669023291596,-0.004898657041213955,-0.017338428156805537,-0.01996348751554066,-0.006072886570287312,-0.005752574093206991,0.0,0.0,0.0,0.0,0.0,-0.009555319592063611,-0.013184510779213053,0.0,0.0,0.016737960314656873,-0.005851514076365335,0.0004163365279563878,-0.0010836023334124892,0.00043147152960300566,-0.0030056015087556297,0.0,0.0,0.0,0.0,-0.005818790130955185,-0.00281498465065878,-0.0008760994319665295,-0.0003083833586100269,-0.006781424173684736,-0.009199773361312889,0.0,8.455969157615794e-05
0.006834165345215843,0.031010158987615274,-0.048845151388140315,0.006712393869761918,0.010330486998566153,-0.012141004723424605,0.009665511348757688,0.010367644754138683,0.0,0.0,0.0,0.0,0.0,-0.026115289667468372,9.120928341854406e-05,0.0,0.0,0.01834629655330696,-0.01393813111346313,-0.00022536760291850914,-0.001470685297920321,0.00043007722796279877,0.0006290214896723729,0.0,0.0,0.0,0.0,0.005950666678338712,0.007776725836378053,-0.0008589904132229559,0.000570847480595713,0.007450915886505698,0.0017116593549255474,0.0,0.0007191187552816426
-0.01066503171179526,-0.03868901167784361,-0.015235197966610365,0.001475208715602911,0.010414009738616612,-0.005409481344573577,0.01029354623018793,0.0032887285151887197,0.0,0.0,0.0,0.0,0.0,-0.011801639641362324,0.013521132109756709,0.0,0.0,0.01736573662001739,0.004888240184436705,0.003481801289112784,0.001113099491260962,0.00031897382915309857,-0.0007628547516367491,0.0,0.0,0.0,0.0,0.001023783743828109,0.0061268685077179716,-0.0016207739005325212,-0.004381552022371035,-0.0058729998817991244,0.009670159929202348,0.0,-0.0032436999582141526
-0.010962442103605415,0.018205578402960103,-0.039874687144580805,-0.003986504987676808,0.002540369185036791,0.01516993863313496,-0.00564197446719729,-0.011700741872115396,0.0,0.0,0.0,0.0,0.0,-0.02269642819126694,0.01575780687736,0.0,0.0,0.018897894786915035,-0.008669735126439256,-0.006934375419929819,0.0015832843317058253,0.000618487794980772,-0.0012742441020013268,0.0,0.0,0.0,0.0,-0.0033188613135113824,-0.00344635118855301,-0.0005650889233001974,-0.0004468487764477182,0.0015195664048246748,-0.010927878491658443,0.0,-0.00012306385555797302
-0.009446266891997441,-0.03290265655373143,0.029884588081653486,-0.004618978406048092,0.01060040835352771,0.039770029941094596,-0.008520615515946708,-0.0125368788957462,0.0,0.0,0.0,0.0,0.0,-0.0004972287528534569,-0.009428483632344975,0.0,0.0,-0.001571105237823043,-0.0003812731695762185,0.0001892916218803293,0.0015108308542557487,0.0010281437242625666,0.002215537543844871,0.0,0.0,0.0,0.0,-0.0025544871654108216,-0.006091334192405452,0.000528070907134103,0.0014747531859647456,0.004310378286925559,-0.004807894850505579,0.0,0.0019682741688473375
0.0008048709989258855,0.018740180604655144,-0.030355914600454264,0.005375910335008288,0.00945383528218841,0.032940308312323315,-0.007799588052769455,-0.012423837444437905,0.0,0.0,0.0,0.0,0.0,-0.004421695778513886,-0.0018795033098739703,0.0,0.0,-0.0018269704272935554,-0.0006514018484406689,0.00022383857083704744,-0.0012873576939910426,0.00032400112325389546,0.0003642528289965039,0.0,0.0,0.0,0.0,0.001847893036798308,-0.004288256813018427,0.00021620663218015684,0.0012285899669114962,0.0027583444390995287,-0.0035724423376751755,0.0,0.0011675430351987814
0.012055188770086295,0.040267837220470594,-0.04179463461606167,-0.0035176372603047314,0.01212746938845993,0.03023783081236318,-0.005996650884123789,-0.012321056458616931,0.0,0.0,0.0,0.0,0.0,-0.006454701656542403,0.013298677427956252,0.0,0.0,-0.0007215293527710026,-0.0006872897036393497,-0.001692585401171628,-0.010236543768559939,0.0004982608437366754,0.0028572820548824498,0.0,0.0,0.0,0.0,-0.002031415002668525,-0.0002675053560962112,0.0009942440228242681,-0.0019664965953261554,-0.004817726423956191,0.005834915488983918,0.0,-0.00062938552897472
0.008561228742989781,0.027260202932004807,-0.02593837007414731,-0.003191694955485147,0.01211829439173437,0.032286900102654226,-0.008858334551307072,-0.014651946258959912,0.0,0.0,0.0,0.0,0.0,0.0034101478485440454,0.006600174004038107,0.0,0.0,0.0028138797507154213,0.004475789044171383,-0.0061295525600577145,0.0015470143964937985,0.0009492414109810973,-0.0008784957745190388,0.0,0.0,0.0,0.0,-0.004025540977316618,-0.0030932038618090778,0.0006774407766836504,0.003500060417204215,0.007672370421636435,-0.0064734493860074864,0.0,0.0039095462397045425
0.00010410721412668883,0.03214284417444988,-0.03704636727631187,-0.0039842204122052015,0.01057590936519302,0.027518667100862988,-0.006508701327932979,-0.0154231274041656,0.0,0.0,0.0,0.0,0.0,-0.00943634486609543,0.015218316209589142,0.0,0.0,-0.0030192324087171575,-8.561409626601587e-05,-0.0005027352910532153,-0.0022510594415934507,0.0005886398197294789,-2.2146175641686143e-06,0.0,0.0,0.0,0.0,-0.002557488414283817,0.0001592108759792465,-0.000957076149889235,-0.0033268173104997046,-0.00564576915329938,0.003055809428548747,0.0,-0.0029470891467192864
-0.009014095340660354,-0.0025709381331511963,-0.01641632503921258,-0.003811577505800921,0.009006510167840003,0.018474640971172893,-0.005643094964791488,-0.012111663969398286,0.0,0.0,0.0,0.0,0.0,-0.008117864375854912,0.013460797682982473,0.0,0.0,-0.0018343387536927274,-0.005382751881801182,7.837523140911006e-05,0.0021821347570416356,0.0004193867374134572,0.0017297740988399968,0.0,0.0,0.0,0.0,-0.0020699022724122045,0.0002590777723065502,-0.0008393776533604574,5.3933183993250696e-05,-0.0030588979009871812,-0.0028793640765568235,0.0,1.4374693332719946e-06
0.010905155173565547,0.0377378208170724,-0.04360369561104415,-0.0027037270704196137,0.012695194761457761,0.035597944121923804,-0.006199637212491118,-0.010980068967667251,0.0,0.0,0.0,0.0,0.0,-0.007930581057797132,0.00589870639312467,0.0,0.0,-0.0028800624745299666,-0.00027857058089125964,-0.00025086326520481643,0.0024313015435702035,0.0006327843254113009,0.0019886970499533264,0.0,0.0,0.0,0.0,-0.002618712238329612,0.0015998335028851007,0.0026974442570671503,0.001551738037247176,0.004503618474903064,-0.012819971279845833,0.0,0.000912795484406691
0.0010607441393895264,0.026283303940597573,-0.033801851318947064,-0.0033779578421844645,-0.022231927430161415,0.04338661547859351,-0.006261715679596698,-0.005542116946189883,0.0,0.0,0.0,0.0,0.0,-0.007934586502935586,-0.011557238139999744,0.0,0.0,-0.0034822016206479405,0.0005095700190632928,-0.006960844466366191,0.001276473720841856,0.0007127242824809239,0.0018402524774452954,0.0,0.0,0.0,0.0,-0.0023952707779583246,0.0031312335907580533,0.001964515357333105,0.0007414517654953268,0.0044086151031853885,-0.014791687191475568,0.0,0.0005227405737218246
-0.008515353008027455,-0.014785138867382051,-0.012052591826021647,-0.003015278189219214,0.005150952774335781,0.012879432202408104,-0.005199629197369861,-0.003923458356736544,0.0,0.0,0.0,0.0,0.0,-0.007425110497129833,-0.02361345873962619,0.0,0.0,-0.0030570651614464607,-0.00038987598725506733,-9.812646821571463e-05,0.0010616043358411475,0.0008202238802895585,-0.00021985710823825688,0.0,0.0,0.0,0.0,-0.0019017058985161585,0.0035040439825738787,0.0006691888228916099,0.0016613964936755298,0.0057805549236956575,0.0008293597223029101,0.0,0.0011406251989629576
-0.009433260721577543,-0.017448693936379014,-0.009854384644297956,0.0033890332555846676,0.009314849213955038,-0.01568577570108181,0.009821676982867693,0.009822886073469114,0.0,0.0,0.0,0.0,0.0,-0.0072270808504738574,0.00265511929725542,0.0,0.0,-0.0023699890932672367,-0.005776889243780241,-0.00952530691257073,0.0009186407479542242,-0.0008280123203595564,-0.0009210858432463957,0.0,0.0,0.0,0.0,0.0017364559328343079,0.003558739878561248,-0.0004749093865811671,-0.0015316186156657178,-0.004452154513269187,0.007853224910535882,0.0,-0.0021522848771154466
-0.008205610095126449,-0.014618139169334118,0.006853290523620453,-0.005128215376826724,-0.011219036177210612,-0.018790172673864392,-0.006129203553983321,-0.008488135276360971,0.0,0.0,0.0,0.0,0.0,-0.0038851207268932662,-0.02496814339814211,0.0,0.0,-0.0045603020751860835,-0.00012685912104594676,0.0004389231241975851,0.0005672079749000315,-0.000403473387762331,0.0010225270006007333,0.0,0.0,0.0,0.0,-0.003666389693949473,0.0015363696758541121,-0.00023616426590999324,-0.004098757826392802,-0.005656515214893334,0.007663181851262053,0.0,-0.003541339810710788
-0.008840970564301236,-0.017911622065855705,0.014772100204427964,0.003544304521095297,0.003372118831596671,-0.014942647174318481,0.010863917257420105,0.00884731169046936,0.0,0.0,0.0,0.0,0.0,-0.00041123668118253523,-0.02067407939943029,0.0,0.0,-0.0029913179503947783,-0.0010697097048840648,0.0008435115894718363,-0.0014533192282673703,-0.0011812225728561675,-0.0016312649747819558,0.0,0.0,0.0,0.0,0.0019885873488497976,0.0039294582810781966,0.00039552680291854973,0.0016269309421230746,0.0038321208995734466,-0.0020010052932053777,0.0,0.0014269390479892212
0.013287303816024821,0.029827267272472688,-0.03721072999949788,-0.0003780905753629673,0.010223646447728071,-0.02097251388481167,0.004531546320443404,0.004820220029001573,0.0,0.0,0.0,0.0,0.0,-0.004348854070601807,0.019731774210175152,0.0,0.0,-0.0007406239520538746,-0.00017261704031460744,0.0028239095119990086,0.00018925734413701516,-0.002421604573515858,-0.0015030183778266088,0.0,0.0,0.0,0.0,-0.001416572519296517,0.00340931348981695,-0.0007259072166348211,-0.0032344142275724146,0.0012117414911074838,0.003883039999352143,0.0,-0.0010015440401178839
0.007033014233796623,0.03232697853488592,0.052026317834184994,-0.0022832677659858,0.005642708482427179,-0.017997581941301865,-0.00471966567517787,0.0015094303049472957,0.0,0.0,0.0,0.0,0.0,0.022942955933873223,0.014507679634751731,0.0,0.0,0.015833909665575872,0.01038211289260393,-8.47156226394239e-05,-0.012901977359018834,0.0006466746174344067,0.001139496088178183,0.0,0.0,0.0,0.0,-0.003310330443545676,0.0036864154494642113,0.00021455604186603865,-0.002708299918356391,-0.003942175205354149,0.0029665181292583653,0.0,-0.0015479059937209675
0.014469658459339195,0.01065117489092615,-0.013490510204721062,-0.00313235619612979,-0.00938798499184901,-0.01630216892736136,-0.002771535858771553,0.0032347626579705985,0.0,0.0,0.0,0.0,0.0,0.01938123280069333,0.017852328936256056,0.0,0.0,0.0008597687530490896,0.008359802233575157,-0.009054249938881109,0.0013210150665728313,0.0005955799119328446,-0.0014803685269351794,0.0,0.0,0.0,0.0,-0.003711464970219057,0.004715092352878119,0.0017364384296951073,0.008065428627878237,0.00750103407346735,0.008634102008652639,0.0,0.004425775220022229
-0.003064476297858119,-0.01258107807899269,0.00717345366089633,0.002529079545937687,-0.012764196212728738,-0.01793221950516577,-0.005173530087939143,-0.007057220526941569,0.0,0.0,0.0,0.0,0.0,-0.007763737060662902,0.006131191183338602,0.0,0.0,-0.0012446588357332524,0.0005963510036985536,0.00018021445655623007,-0.0047330800138077255,-0.0032126623571284273,-0.0013264491073554038,0.0,0.0,0.0,0.0,0.002081479438893975,0.0005635909303194419,0.002478605569360201,0.002200309922102173,0.005025879041273414,-0.0014788009532147202,0.0,0.0011892338015556127
-0.0009036151067667899,-0.021324278593435997,0.015917302100060524,-0.001233605996126796,0.008638958750106424,-0.020907392457224405,0.00615866196676663,0.0116354689746882,0.0,0.0,0.0,0.0,0.0,0.0038640613433586156,0.01629691504439576,0.0,0.0,3.123732662687499e-05,0.0010717325799012025,0.0005810910247329451,0.0014548918883452366,0.00030812410625632216,0.00034082479823587626,0.0,0.0,0.0,0.0,-0.001570614926330276,0.005178694803461035,0.001400642843991375,-0.0006460625887970091,0.0018003231991175024,0.00411695374734275,0.0,-0.0019073028734036509
-0.007441532631074764,-0.015219988334818961,0.00998728072072379,0.004597753208343977,-0.016333223332818236,-0.01721045644475143,0.009619671814449266,0.008549756332153713,0.0,0.0,0.0,0.0,0.0,-0.007691666000007451,0.014216487956163608,0.0,0.0,-0.003914156096191383,-0.0012671991617973371,0.0008265268124925425,0.0006230935308636907,-0.0032107202288574523,-0.0005648559965751727,0.0,0.0,0.0,0.0,0.0018009829539279343,0.0034567838734026897,0.0010899926309702425,-0.003044928847780334,-0.004977723268478708,0.0042952415406037996,0.0,-0.0024313174624089207
