gsr_mean,gsr_std,gsr_slope,ecg_mean,ecg_std,ecg_max,emg_trap_mean,emg_trap_std,emg_corr_mean,emg_corr_std,emg_corr_max,emg_zyg_mean,emg_zyg_std,gsr_shannon,ecg_shannon,emg_corr_shannon,emg_zyg_shannon,gsr_sim_corr,gsr_sim_mi,ecg_sim_corr,ecg_sim_mi,emg_trap_sim_corr,emg_trap_sim_mi,emg_corr_sim_corr,emg_corr_sim_mi,emg_zyg_sim_corr,emg_zyg_sim_mi,gsr_x_ecg,emg_asymmetry,hrv_pnn50,hrv_rmssd,hrv_sdnn,hrv_meannn,hrv_lf_hf_ratio,parasympathetic_tone,subject_id,sample_name,class_name,label
11.40541238991477,0.42188219926341086,0.0004448211495521855,1.8734382970845163,264.8578207685567,1631.821,0.43098709480203323,1.278059604435857,0.0,0.0,0,0.0,0.0,2.7379735817082698,1.7619744479337163,3.552713678800438e-14,3.552713678800438e-14,-0.8031793715392712,1.353169373091868,0.23993944793556585,0.08689130256693624,-0.03463298967774601,0.014796302607865778,0.0,-9.996448114224198e-11,0.0,-9.996448114224198e-11,21.36733636530857,0.9999976797502946,0.0,25.925849228195496,25.962607858917746,676.7578125,,0.2924253473150518,1,071309_w_21-PA2-004,PA2,0
10.241799612926137,0.09747281127661668,3.4632808119000547e-05,-0.4589296516335214,244.7960118100043,1622.889,0.4386504194061855,1.3469276482570685,0.0,0.0,0,0.0,0.0,2.759864313093522,1.6111947327208966,3.552713678800438e-14,3.552713678800438e-14,-0.3405729181441357,1.4035296718999644,0.017312789387213944,0.08207780590229352,0.006685838341553917,0.01284866908956214,0.0,-9.996448114224198e-11,0.0,-9.996448114224198e-11,-4.700265528460526,0.9999977202855029,0.0,29.009002340598943,25.11620534951198,730.1432291666666,,0.3530121069187984,1,071309_w_21-PA2-005,PA2,0
10.386558497869318,0.26142594316826223,0.000264425216770887,-0.5001312748579572,255.75585628174574,1592.582,0.2509971533289448,0.6689937567104587,0.0,0.0,0,0.0,0.0,2.593547074084279,1.7114654968372178,3.552713678800438e-14,3.552713678800438e-14,-0.7963207505198133,1.4356361483654918,-0.18493271665291394,0.05584251036182255,0.02198895816846794,0.015293836712809157,0.0,-9.996448114224198e-11,0.0,-9.996448114224198e-11,-5.19464274292613,0.9999960159069431,33.33333333333333,45.545936954319814,32.83729222114191,740.8854166666666,,0.5624053351123832,1,071309_w_21-PA2-013,PA2,0
9.823943118963069,0.10227556201987466,0.00010336379792574767,-7.2523808085227275,245.91148463315082,1557.974,0.3139700017187103,0.9276394870307131,0.0,0.0,0,0.0,0.0,2.0513628316238295,1.6615660261208118,3.552713678800438e-14,3.552713678800438e-14,-0.8100447233258061,1.1902772434247857,0.13574106337862912,0.06665885905936168,-0.042065583385620296,0.01866497408333983,0.0,-9.996448114224198e-11,0.0,-9.996448114224198e-11,-71.24697653998666,0.9999968149924849,16.666666666666664,35.95023551513606,24.164084811795927,723.9583333333334,,0.4337745384732376,1,071309_w_21-PA2-014,PA2,0
9.78012769637784,0.050312119056693784,-4.876943477872964e-07,2.244118536967331,252.38421529068847,1559.946,0.4949056348233938,1.451163361004452,0.0,0.0,0,0.0,0.0,1.9832087267414258,1.764877149007364,3.552713678800438e-14,3.552713678800438e-14,-0.01738627526543428,0.8969848976321588,-0.12917267859860065,0.05258206603926368,-0.027591781441029566,0.010881807781810016,0.0,-9.996448114224198e-11,0.0,-9.996448114224198e-11,21.947765857349108,0.9999979794168645,14.285714285714285,34.00719121541765,28.40277531429482,693.0803571428571,,0.3928285999125417,1,071309_w_21-PA2-016,PA2,0
10.689336392045455,0.043784764249423,-7.301618207462183e-06,-1.1137422387784077,250.20270071274317,1555.642,4.028051142283795,7.7129759211268745,0.0,0.0,0,0.0,0.0,2.9034627425160324,1.7935421336563784,3.552713678800438e-14,3.552713678800438e-14,0.12352440238338303,1.3737774412262498,-0.060100745752712716,0.07574430384723779,-0.013854602872225993,0.005912370214937187,0.0,-9.996448114224198e-11,0.0,-9.996448114224198e-11,-11.905165444332212,0.9999997517410488,0.0,23.290554977756006,25.11620534951198,689.1276041666666,,0.26750273650800105,1,071309_w_21-PA2-019,PA2,0
10.234308604403408,0.03976164297402803,-3.70758349238676e-05,-5.831708265021304,244.01760386259213,1575.845,0.17327303773410505,0.5695450134693778,0.0,0.0,0,0.0,0.0,2.8170415762652112,1.6579314686957163,3.552713678800438e-14,3.552713678800438e-14,0.7439289600212969,1.351478055623085,0.19864503765408914,0.09000782446566609,0.022882065378513505,0.017251450775959427,0.0,-9.996448114224198e-11,0.0,-9.996448114224198e-11,-59.683502075078,0.9999942287949593,16.666666666666664,29.62060720332637,22.589363372284403,728.1901041666666,,0.3594905468785549,1,071309_w_21-PA2-032,PA2,0
10.453854936079546,0.044882361234631074,-5.163638758211129e-05,-3.3994674567183973,251.12172188400297,1534.755,0.31318245965314956,1.1773161371858245,0.0,0.0,0,0.0,0.0,2.6628834886169246,1.7237246453677215,3.552713678800438e-14,3.552713678800438e-14,0.9330453281515186,1.4698083637163695,-0.06472354703016883,0.06183593652614199,0.027545154730766862,0.010749620182130635,0.0,-9.996448114224198e-11,0.0,-9.996448114224198e-11,-35.5375396524574,0.9999968069833538,0.0,30.930988898170554,25.525483207350845,687.5,,0.35441757757935266,1,071309_w_21-PA2-034,PA2,0
10.235349659090907,0.013942105505292676,-1.6110828557287582e-05,9.00889702262074,250.33336816966786,1523.198,0.19931158878174068,0.5764518702419338,0.0,0.0,0,0.0,0.0,2.8464928158531446,1.6832593060740786,3.552713678800438e-14,3.552713678800438e-14,0.9201425852629842,1.3811519549368902,-0.03907497457829759,0.05072085062922424,-0.0736476697972855,0.012840664491249812,0.0,-9.996448114224198e-11,0.0,-9.996448114224198e-11,92.20921106926629,0.9999949827554491,0.0,18.356604400874588,17.021613905172327,686.6629464285714,,0.21007999897384466,1,071309_w_21-PA2-035,PA2,0
10.343456750710228,0.017942571305300963,-1.3563745638704957e-05,-9.009999838920454,246.69343100991162,1522.166,0.13581947537385186,0.4708953788095065,0.0,0.0,0,0.0,0.0,2.7063922414236363,1.6323625830924904,3.552713678800438e-14,3.552713678800438e-14,0.5820811149540868,1.2390462689804982,-0.03026266050309577,0.05070693730846699,-0.02707323609921758,0.013175622615666674,0.0,-9.996448114224198e-11,0.0,-9.996448114224198e-11,-93.19454365777983,0.9999926373398617,0.0,24.498551721649452,20.78823476200154,704.2410714285714,,0.28754810224830085,1,071309_w_21-PA2-038,PA2,0
11.671320671164773,0.09260819168556153,-9.165878873096137e-05,2.352526261505682,249.42610691627058,1560.151,0.1736388195305894,0.5161720130172291,0.0,0.0,0,0.0,0.0,2.5775708638210677,1.7263863645185473,3.552713678800438e-14,3.552713678800438e-14,0.8082826053691751,1.2756651428611159,0.06288483752628142,0.05997022782597122,-0.0145292000341056,0.011836159754903644,0.0,-9.996448114224198e-11,0.0,-9.996448114224198e-11,27.457088385369254,0.9999942409523189,14.285714285714285,28.00992807851426,24.053324481655164,685.546875,,0.3200353078635155,1,071309_w_21-PA2-040,PA2,0
11.764034897017046,0.0464718864426101,-4.745088885555291e-05,21.9424954095348,265.5392175510482,1589.258,1.432441527649764,2.912858961533671,0.0,0.0,0,0.0,0.0,2.5372104659292947,2.0379722265586686,3.552713678800438e-14,3.552713678800438e-14,0.8382963502051426,1.26663288764135,-0.13506424184257637,0.10089597710481248,-0.002757764113233554,0.015001391378686082,0.0,-9.996448114224198e-11,0.0,-9.996448114224198e-11,258.13228172540374,0.9999993018917125,0.0,7.307924583542854,8.415831067999415,715.1692708333334,,0.08710671734548685,1,071309_w_21-PA2-044,PA2,0
10.788887123579544,0.07401238717561805,-9.08642559170475e-05,-7.623838830411932,236.9197153567786,1408.923,6.501348037017046,9.469962668515343,0.0,0.0,0,0.0,0.0,2.9856996925753636,1.7333377375483494,3.552713678800438e-14,3.552713678800438e-14,0.9843365882159733,1.7415659729223938,-0.22995585967323637,0.10153170865637355,0.025505913117728003,0.011255247046634526,0.0,-9.996448114224198e-11,0.0,-9.996448114224198e-11,-82.25273658967703,0.9999998461857694,0.0,17.231094098783913,12.643337401760736,681.0825892857143,,0.1955966344839862,1,071309_w_21-PA2-050,PA2,0
10.48193180752841,0.02438327398542836,-2.5064332282829445e-05,4.760314472975851,239.3383964263975,1477.931,4.36842346837508,7.372900697402607,0.0,0.0,0,0.0,0.0,2.9286127108874562,1.760056730152652,3.552713678800438e-14,3.552713678800438e-14,0.8125290487400616,1.4037431928840323,-0.046304400793920994,0.05875666723208011,0.028630086248584784,0.013703222052529771,0.0,-9.996448114224198e-11,0.0,-9.996448114224198e-11,49.89729168812341,0.9999997710845163,0.0,24.534857417878445,27.612149985521167,680.3385416666666,,0.2782001491823932,1,071309_w_21-PA2-051,PA2,0
10.335497414772727,0.057483169936217264,5.62512404449215e-05,1.0767454048920435,238.05569170493172,1491.186,2.0579323284063578,7.6990251688973865,0.0,0.0,0,0.0,0.0,2.6671507130908423,1.750485412936377,3.552713678800438e-14,3.552713678800438e-14,-0.7698235093803116,1.4391295673136508,0.14589153184534867,0.06892967836589048,0.012884486133048772,0.012582885234548523,0.0,-9.996448114224198e-11,0.0,-9.996448114224198e-11,11.128699348630128,0.9999995140756086,0.0,22.960643765133742,19.24265958532413,715.4947916666666,,0.2738036809053742,1,071309_w_21-PA2-056,PA2,0
10.273084105113638,0.007636371242119783,-4.164324034548668e-06,-1.4274607356587372,243.43679380577728,1487.852,0.35029367888067003,0.9559715831197263,0.0,0.0,0,0.0,0.0,2.858106992819234,1.6981592966609513,3.552713678800438e-14,3.552713678800438e-14,0.3994965759782097,1.0399184212661499,-0.036557022320092586,0.06593850112799912,-0.003727756313068653,0.01236642627847711,0.0,-9.996448114224198e-11,0.0,-9.996448114224198e-11,-14.664424194169593,0.9999971452606612,0.0,28.168369339562418,28.704957923240368,697.265625,,0.3273472575450201,1,071309_w_21-PA2-057,PA2,0
10.126035948153408,0.009195065485664762,-1.0932638396458984e-05,0.5596171483664757,245.42530000496708,1498.81,5.698651263077648,14.419411608852064,0.0,0.0,0,0.0,0.0,2.8216647737864573,1.7164538673393612,3.552713678800438e-14,3.552713678800438e-14,0.9204553566027912,1.226095916561715,0.019644375493719755,0.05117705479199882,0.03194310590212926,0.009548286786753629,0.0,-9.996448114224198e-11,0.0,-9.996448114224198e-11,5.666703361562032,0.9999998245199121,0.0,22.971717141116343,22.26089261529649,684.9888392857143,,0.26225616173703675,1,071309_w_21-PA2-059,PA2,0
11.457300071022727,0.03303257829092504,-4.005736912225652e-05,-0.3937303255326686,241.38301695404706,1438.24,1.9594272240503228,3.5084452803956276,0.0,0.0,0,0.0,0.0,2.886483602265002,1.8062137526572102,3.552713678800438e-14,3.552713678800438e-14,0.949770198376785,1.5360526738670797,-0.03299420762378774,0.03141883283543068,-0.01105584436857201,0.012229256053835303,0.0,-9.996448114224198e-11,0.0,-9.996448114224198e-11,-4.511086486689246,0.999999489647037,0.0,22.025038833381863,22.6772467873946,650.6696428571429,,0.23885040030406024,1,071309_w_21-PA2-064,PA2,0
11.019162130681819,0.024704823792401444,-3.008441439602306e-05,-20.54211142490767,246.0647147266723,1528.621,0.13038917300639252,0.5454858465343404,0.0,0.0,0,0.0,0.0,2.9033048929081082,1.7622932259924369,3.552713678800438e-14,3.552713678800438e-14,0.9616888288111672,1.5947110629177959,0.10997038090925951,0.05727947861205506,0.05130483410625043,0.010567258870576315,0.0,-9.996448114224198e-11,0.0,-9.996448114224198e-11,-226.35685629758893,0.999992330710383,0.0,15.827142944196899,13.41028442042178,672.1540178571429,,0.1773046269632067,1,071309_w_21-PA2-071,PA2,0
11.494530973011363,0.036935361309094604,-4.35486312701003e-05,-0.037311718501422834,243.35308442339976,1498.826,5.172721901438708,7.670479197842641,0.0,0.0,0,0.0,0.0,2.8591010792914116,1.7007225555684655,3.552713678800438e-14,3.552713678800438e-14,0.9339277435164449,1.508908716114899,-0.03387656024221267,0.06675463045141652,-0.05728749874006118,0.011892840750820352,0.0,-9.996448114224198e-11,0.0,-9.996448114224198e-11,-0.4288807039708859,0.9999998066782197,0.0,28.99584931233693,31.96607953574252,698.5677083333334,,0.33759272997437234,1,071309_w_21-PA2-080,PA2,0
9.9679530390625,0.31198272581553127,0.00032384158370398305,-8.083686399147727,251.32376297227418,1566.955,0.5450199908929073,1.6612048363015623,0.0,0.0,0,0.0,0.0,2.459541167972147,1.711858860517306,3.552713678800438e-14,3.552713678800438e-14,-0.7887343793521268,1.2704816200961573,-0.07814954407989393,0.04951018440103417,0.03166195399153038,0.011317029085699102,0.0,-9.996448114224198e-11,0.0,-9.996448114224198e-11,-80.57780640921278,0.9999981652082823,14.285714285714285,31.49319432929121,27.641081140748895,702.0089285714286,,0.3684750563536321,1,071309_w_21-PA3-006,PA3,1
9.892304672230114,0.19747021802117148,0.0002065312388882823,6.165614156896305,236.53518394743696,1567.983,0.2681029580991103,0.8435684349785971,0.0,0.0,0,0.0,0.0,2.6000671653215566,1.735985899461579,3.552713678800438e-14,3.552713678800438e-14,-0.7961558161814938,1.3880351051498243,0.22995729027047573,0.06772741975479864,-0.017387649575017167,0.01226266474208466,0.0,-9.996448114224198e-11,0.0,-9.996448114224198e-11,60.99213373143346,0.9999962701035559,16.666666666666664,30.869262656453667,22.016377219820175,699.8697916666666,,0.3600744033856651,1,071309_w_21-PA3-008,PA3,1
10.249386609375,0.6773313851469993,0.000721062720791582,-3.7021099186576696,242.90387984256418,1475.027,0.2996981413124868,0.9098070101532542,0.0,0.0,0,0.0,0.0,2.32888926236008,1.8266205060448848,3.552713678800438e-14,3.552713678800438e-14,-0.8617194812804314,1.2023150932811604,-0.014526591214408788,0.041806839496850774,-0.049073194559061166,0.010589989791990124,0.0,-9.996448114224198e-11,0.0,-9.996448114224198e-11,-37.94435582672429,0.9999966633204367,0.0,26.44543751509102,23.266364288759465,652.9017857142857,,0.287771220269293,1,071309_w_21-PA3-009,PA3,1
10.734661352982954,0.6416970305825267,0.0007539993404089227,6.346443993657672,243.13548186321563,1602.446,0.9357992521383892,3.8595145820913497,0.0,0.0,0,0.0,0.0,2.4960347936616945,1.7928497636089802,3.552713678800438e-14,3.552713678800438e-14,-0.9049341032212599,1.3612664122025793,-0.05130519446311678,0.043907391837525095,-0.08607633400612104,0.01308809462805533,0.0,-9.996448114224198e-11,0.0,-9.996448114224198e-11,68.12692706758781,0.9999989313958852,0.0,26.421385270446645,24.12458592719996,691.0807291666666,,0.3043218335734021,1,071309_w_21-PA3-011,PA3,1
9.750568277343751,0.13088326967542152,0.0001309833530480157,-9.306558848615056,246.3590409492175,1558.269,0.5257765535658593,1.3661885446609159,0.0,0.0,0,0.0,0.0,2.1216571502876005,1.808966555375456,3.552713678800438e-14,3.552713678800438e-14,-0.786430354105,1.0169810416623162,0.07151070507852345,0.0526369654841997,-0.000950272761148804,0.01192906867632523,0.0,-9.996448114224198e-11,0.0,-9.996448114224198e-11,-90.74423748053876,0.9999980980549793,33.33333333333333,45.61289169381695,35.242948651999875,677.734375,,0.5152237390079962,1,071309_w_21-PA3-015,PA3,1
11.463305042613637,0.2453535476894039,0.00017808773487583418,0.5360001257230119,248.7046964378934,1581.503,3.4762077950956156,5.548433226118977,0.0,0.0,0,0.0,0.0,2.2597020501143046,1.8478135420834887,3.552713678800438e-14,3.552713678800438e-14,-0.590164349187282,1.1519551897640987,0.10860466783877934,0.03773189645075655,-0.03316207486709989,0.014053054057200757,0.0,-9.996448114224198e-11,0.0,-9.996448114224198e-11,6.144332944042146,0.9999997123302831,0.0,28.969525340217434,25.989531145572187,694.0104166666666,,0.33508586914027166,1,071309_w_21-PA3-021,PA3,1
11.111538167613638,0.10036431161383544,-0.0001226913453518159,-5.02809540482954,243.8584021812312,1482.343,4.067024683819384,7.324398154697633,0.0,0.0,0,0.0,0.0,2.9425571114468214,1.6643465425986776,3.552713678800438e-14,3.552713678800438e-14,0.972642262598165,1.6992157805142567,-0.11993284377358128,0.047647731726794255,-0.0416735656916324,0.012845145427124258,0.0,-9.996448114224198e-11,0.0,-9.996448114224198e-11,-55.86987400116618,0.9999997541200676,0.0,14.589726091393045,10.961886875314281,729.4921875,,0.17738485144375,1,071309_w_21-PA3-023,PA3,1
10.74213978693182,0.20131443391216403,0.00012016766553137765,-87.74459110062146,284.2576989285942,1653.075,4.452217491703574,7.55672960113171,0.0,0.0,0,0.0,0.0,1.6789613280419844,2.1048526911918044,3.552713678800438e-14,3.552713678800438e-14,-0.500885288245829,0.6976661410099677,-0.005202233759172406,0.06518004473156815,0.10129297400811273,0.014594877647449385,0.0,-9.996448114224198e-11,0.0,-9.996448114224198e-11,-942.5646631500495,0.9999997753928739,42.857142857142854,55.96308117927501,34.80573027839028,681.0825892857143,,0.6352579976214529,1,071309_w_21-PA3-024,PA3,1
10.34858450284091,0.2097759638594854,0.00021926832856761295,-3.448255444247159,254.60188755307183,1568.885,0.2892239446145673,1.0810687667035181,0.0,0.0,0,0.0,0.0,2.2313211881084776,1.7616395559498919,3.552713678800438e-14,3.552713678800438e-14,-0.8357105174896368,1.1633184257933382,0.0026266063424968955,0.05633731032148855,-0.02802886876567484,0.008815355437171124,0.0,-9.996448114224198e-11,0.0,-9.996448114224198e-11,-35.684562852172945,0.9999965424835631,0.0,24.565933880515818,15.559759631551724,688.8020833333334,,0.28201777110399534,1,071309_w_21-PA3-027,PA3,1
10.182172662642046,0.27090800219054956,0.00029045418707591655,-6.503652686292611,259.97487871580347,1588.157,0.6447116319194129,1.5788086001851118,0.0,0.0,0,0.0,0.0,2.2045961892221815,1.8500647822782263,3.552713678800438e-14,3.552713678800438e-14,-0.8598893018664837,1.1490538868961229,-0.0970174312588494,0.08035915994648095,-0.03175494459479923,0.012894975539952494,0.0,-9.996448114224198e-11,0.0,-9.996448114224198e-11,-66.22131458968713,0.999998448921348,0.0,31.39209232094061,20.744497632207164,706.7522321428571,,0.36977385149188363,1,071309_w_21-PA3-029,PA3,1
10.019339312855113,0.041265441770708566,-3.036644039835549e-05,-27.53358246617898,251.04352239672608,1548.062,1.60811703795369,5.698099699325902,0.0,0.0,0,0.0,0.0,1.8704319545290657,1.9321954212902737,3.552713678800438e-14,3.552713678800438e-14,0.5984730743900518,0.8521561324591012,-0.05543268779851861,0.045404710291608266,-0.06164602199923358,0.010148182630212457,0.0,-9.996448114224198e-11,0.0,-9.996448114224198e-11,-275.8683052271253,0.9999993781551003,16.666666666666664,31.589947842430828,33.52896187148787,665.0390625,,0.3501424849380936,1,071309_w_21-PA3-033,PA3,1
11.233227368607954,0.04108049931630815,-4.87071971271428e-05,10.678546499026991,237.12349955537405,1472.031,7.64133078015735,10.994217576347092,0.0,0.0,0,0.0,0.0,2.935141919460056,1.7305026092637044,3.552713678800438e-14,3.552713678800438e-14,0.948227770330037,1.5331183975330271,-0.06987293516331924,0.0699122717531644,0.007732282864335919,0.013780863299401088,0.0,-9.996448114224198e-11,0.0,-9.996448114224198e-11,119.95454078982264,0.99999986913276,0.0,22.337466336712183,18.422293561473396,702.7994791666666,,0.2616459924299512,1,071309_w_21-PA3-045,PA3,1
11.092937176846592,0.09866451318962659,5.128976452951361e-05,2.8056141881392023,262.90958398216367,1617.477,6.171730722970309,9.510798955708347,0.0,0.0,0,0.0,0.0,2.378997060194993,1.992828482385218,3.552713678800438e-14,3.552713678800438e-14,-0.4399253471286657,1.2069815078574389,0.031534929114179905,0.05371583502892482,-0.0016097118124604598,0.012704784208249864,0.0,-9.996448114224198e-11,0.0,-9.996448114224198e-11,31.122501931497624,0.9999998379709221,0.0,28.33714478231818,21.60242190499617,664.0625,,0.3136272504512869,1,071309_w_21-PA3-046,PA3,1
10.398638338068183,0.013312208037000062,-9.801623559789461e-06,-2.490492971985083,254.69066932909996,1518.567,5.4364394714458815,9.702080789444713,0.0,0.0,0,0.0,0.0,2.912342102955766,1.775964388148633,3.552713678800438e-14,3.552713678800438e-14,0.5488277168183752,1.1915140353785534,0.13832940881111927,0.06477329571336578,0.05797588592593303,0.01054916005083704,0.0,-9.996448114224198e-11,0.0,-9.996448114224198e-11,-25.897735699173452,0.9999998160561114,14.285714285714285,36.32147396552962,32.42534853022474,674.9441964285714,,0.4085827969886092,1,071309_w_21-PA3-052,PA3,1
10.255636839488638,0.09949529338612595,9.12895476500814e-05,4.7943076222301135,259.2284394224259,1634.901,1.3889564158114285,2.9136474701035087,0.0,0.0,0,0.0,0.0,1.7330739005624605,1.7034939676585894,3.552713678800438e-14,3.552713678800438e-14,-0.7522758333461061,0.8946923216216609,-0.021275431231162184,0.044328119195946994,0.027598265937388924,0.015221285697614688,0.0,-9.996448114224198e-11,0.0,-9.996448114224198e-11,49.16867787038433,0.9999992800355226,14.285714285714285,42.22244887263271,40.85587512325557,686.9419642857143,,0.4834061945944984,1,071309_w_21-PA3-055,PA3,1
10.71107536221591,0.06146015288307874,5.1122985391420536e-05,-4.245413201377841,253.40918249629607,1594.111,3.521400263659071,5.870709069577669,0.0,0.0,0,0.0,0.0,1.7954857464828848,1.6776721084187034,3.552713678800438e-14,3.552713678800438e-14,-0.6865509531570098,0.7369870509111133,-0.15215353467323303,0.07179120678090443,-0.00809350027894602,0.011259325457161058,0.0,-9.996448114224198e-11,0.0,-9.996448114224198e-11,-45.47294074370436,0.9999997160221386,14.285714285714285,33.078426993386046,36.225072248030095,677.734375,,0.3736397804032588,1,071309_w_21-PA3-067,PA3,1
11.379138938210227,0.01274581030657455,9.394383414126622e-06,-9.078839085688923,262.7600511098963,1599.623,0.583949362716801,1.818065906925798,0.0,0.0,0,0.0,0.0,2.707226492539771,2.023383482542535,3.552713678800438e-14,3.552713678800438e-14,-0.6226096691561118,1.0328927017758744,-0.06093375427219539,0.058245230763408457,-0.05634698594870395,0.011105981926381889,0.0,-9.996448114224198e-11,0.0,-9.996448114224198e-11,-103.30937135370776,0.9999982875256804,14.285714285714285,44.11497918333811,33.732324240418336,645.3683035714286,,0.4745068169253853,1,071309_w_21-PA3-070,PA3,1
10.809652183948863,0.007205118408076394,-1.393066338484945e-06,-5.700579407990056,239.73668740810166,1680.157,0.5755815605338651,1.759019407527489,0.0,0.0,0,0.0,0.0,2.760705282209318,1.6126058722423415,3.552713678800438e-14,3.552713678800438e-14,0.17761096959356404,1.0057092952326145,0.10910460258462741,0.03906872212666844,-0.028605503367249235,0.011839619777274626,0.0,-9.996448114224198e-11,0.0,-9.996448114224198e-11,-61.62128064735363,0.9999982626297796,0.0,22.439697838039173,34.52117358638391,705.078125,,0.26369566522874777,1,071309_w_21-PA3-072,PA3,1
11.024073934659091,0.05868230847585488,-7.19349949763233e-05,0.5462099812606518,233.89799146901157,1505.154,4.530998387826165,6.926651010949472,0.0,0.0,0,0.0,0.0,2.9213144855264246,1.7749885989596008,3.552713678800438e-14,3.552713678800438e-14,0.9850100074927705,1.7430370000047901,-0.012492058427084852,0.05925595369299815,-0.03816130884608536,0.013085936330179654,0.0,-9.996448114224198e-11,0.0,-9.996448114224198e-11,6.021459217266182,0.9999997792981383,16.666666666666664,28.982690314921165,42.21642526908217,669.921875,,0.32360230084184594,1,071309_w_21-PA3-077,PA3,1
11.395548430397726,0.03817086930243262,3.2832839199574944e-05,-3.4719184633167597,246.87660024382217,1660.803,4.172954503946555,6.786729922053441,0.0,0.0,0,0.0,0.0,2.268567746731867,1.760294157310923,3.552713678800438e-14,3.552713678800438e-14,-0.6788655353259754,1.115242362599722,-0.16208864108387594,0.05989161912415337,-0.035019796775262825,0.01283679533775966,0.0,-9.996448114224198e-11,0.0,-9.996448114224198e-11,-39.564414995118184,0.9999997603616911,0.0,13.150397055158956,12.032324955843155,647.6004464285714,,0.1419367154144338,1,071309_w_21-PA3-079,PA3,1
3.6365453046875,0.13370708382707053,0.00016095798871598494,-4.752357603125,304.2451399979305,2048.328,1.0367380273005755,3.3222279781746704,0.0,0.0,0,0.0,0.0,2.7176341346095603,2.0342862996750726,3.552713678800438e-14,3.552713678800438e-14,-0.9249716740394165,1.4527561333182049,-0.06402172938122404,0.04819691457773193,0.043619480934420016,0.015200543781284237,0.0,-9.996448114224198e-11,0.0,-9.996448114224198e-11,-17.28216372784016,0.9999990354371027,0.0,25.892721842896197,32.83922832516299,866.796875,,0.37406216800539116,2,071313_m_41-PA2-001,PA2,0
3.7186885660511364,0.019284307631230905,-9.113215966244585e-06,-24.66864417558345,251.73793001512712,1816.012,0.899110726406959,2.4062767413331727,0.0,0.0,0,0.0,0.0,2.7246786713502695,1.739122719176822,3.552713678800438e-14,3.552713678800438e-14,0.371713498285774,0.9432549678868674,0.031636946836618135,0.04331569083300131,0.014662083246723398,0.011707620972703846,0.0,-9.996448114224198e-11,0.0,-9.996448114224198e-11,-91.73500503572613,0.9999988877911714,25.0,31.04588285824574,29.073584845607527,907.71484375,,0.4696801385410598,2,071313_m_41-PA2-002,PA2,0
3.8938520014204543,0.019746107665103825,-2.0461331327862857e-05,12.086103009730122,260.930376187776,1926.527,0.6311356948056163,2.2068990408650286,0.0,0.0,0,0.0,0.0,2.8950032130452334,1.8169388677836327,3.552713678800438e-14,3.552713678800438e-14,0.910212805901941,1.5334693694243158,-0.007985869872579099,0.028512201772231554,-0.027869759534580152,0.011724359719563142,0.0,-9.996448114224198e-11,0.0,-9.996448114224198e-11,47.06149639381141,0.9999984155571872,25.0,37.36548138615037,30.110237187102026,918.9453125,,0.5722805580096639,2,071313_m_41-PA2-013,PA2,0
3.790918502485795,0.02547343154019955,1.2101308610514959e-05,-3.002665986008527,258.8931521034251,1894.624,0.6749070232778276,2.49488495984701,0.0,0.0,0,0.0,0.0,2.4463550988357583,1.7326209737159823,3.552713678800438e-14,3.552713678800438e-14,-0.21259984619999145,1.1078699841282966,0.08957548335398326,0.02838825731586369,0.01994991559431217,0.01777634190945928,0.0,-9.996448114224198e-11,0.0,-9.996448114224198e-11,-11.38286204314448,0.9999985183166216,0.0,20.03738723504218,24.912873080341164,894.140625,,0.29860402831251714,2,071313_m_41-PA2-015,PA2,0
4.017374556818182,0.02831633904621916,-3.081080153556077e-05,-0.17042859883522513,240.58295648074704,1883.989,0.5820348073159995,2.1158966741900698,0.0,0.0,0,0.0,0.0,2.9349954875105344,1.5216007668353815,3.552713678800438e-14,3.552713678800438e-14,0.9333187731111247,1.522535347405257,-0.025800867030776817,0.029740680644836794,0.0443441280143657,0.01160119811147215,0.0,-9.996448114224198e-11,0.0,-9.996448114224198e-11,-0.6846755167148063,0.9999982818926474,0.0,32.10797309135468,34.64801912797018,885.15625,,0.47367621115791547,2,071313_m_41-PA2-028,PA2,0
4.314987498934659,0.054281818271525575,-7.252085209423208e-08,-5.761939010901989,291.4269124412116,1981.32,0.6400615675935973,2.4124445825477445,0.0,0.0,0,0.0,0.0,2.6303451346041133,1.9713189938158753,3.552713678800438e-14,3.552713678800438e-14,0.16133809812900804,1.2170598654920848,0.1368483517162869,0.05513579654454486,0.01694492089805252,0.015778793964739746,0.0,-9.996448114224198e-11,0.0,-9.996448114224198e-11,-24.862694801666017,0.999998437652738,20.0,38.32307982489958,38.97940380378383,918.75,,0.5868221514717787,2,071313_m_41-PA2-037,PA2,0
4.1133103110795455,0.023113158163716088,-1.0254135163702295e-05,-41.28384623802203,315.0883861866129,2065.449,0.5937216816035126,2.4699299170899254,0.0,0.0,0,0.0,0.0,2.5723282009717594,2.037711469986531,3.552713678800438e-14,3.552713678800438e-14,0.5029688590987225,1.337789864760072,0.029642275185656472,0.06052128844264245,0.023744269451746326,0.014689912575747944,0.0,-9.996448114224198e-11,0.0,-9.996448114224198e-11,-169.8132704118785,0.9999983157119796,0.0,22.24762841776273,21.279204999945076,826.5625,,0.30648425221627074,2,071313_m_41-PA2-041,PA2,0
4.108135417258523,0.022713829051950914,-2.3009411287005524e-05,-7.53748138490057,266.67080584100506,1855.767,0.6938900634831756,2.5411779592463297,0.0,0.0,0,0.0,0.0,2.945668801101015,1.8959423087841496,3.552713678800438e-14,3.552713678800438e-14,0.876529629684321,1.381594394319917,-0.07988932736471156,0.07698310643719229,-0.049284722089534466,0.014534053223374234,0.0,-9.996448114224198e-11,0.0,-9.996448114224198e-11,-30.96499423423685,0.999998558851594,0.0,18.75915303935405,18.080916892239244,802.34375,,0.2508548168984431,2,071313_m_41-PA2-044,PA2,0
4.181969467329545,0.028251236939891265,-1.4390452015027148e-05,-35.641379731178965,312.8089684010143,2041.149,0.6104173853140565,2.1796266760246277,0.0,0.0,0,0.0,0.0,2.8381072738092303,1.9922141322349767,3.552713678800438e-14,3.552713678800438e-14,0.5409354489990634,1.3761629028905435,0.066157694481954,0.05307535368383531,-0.03455727531407038,0.012727400847950099,0.0,-9.996448114224198e-11,0.0,-9.996448114224198e-11,-149.05116180928854,0.9999983617793564,0.0,29.908970373268662,39.75461076590283,926.953125,,0.46207021924375563,2,071313_m_41-PA2-045,PA2,0
3.9499179485085225,0.014025385482993596,1.3306343445139974e-05,-0.2181479604403607,332.8518018767034,1959.957,0.6711449124385507,2.4918641521047307,0.0,0.0,0,0.0,0.0,2.535945622493974,2.183178762512598,3.552713678800438e-14,3.552713678800438e-14,-0.6668250137111535,1.2395322983464687,0.06470885824270076,0.04847840579974483,0.020421225278603693,0.012365583255730575,0.0,-9.996448114224198e-11,0.0,-9.996448114224198e-11,-0.8616665443739079,0.9999985100110401,0.0,23.93674015602114,44.4981144994978,777.9947916666666,,0.3103776492221224,2,071313_m_41-PA2-047,PA2,0
4.230436403764204,0.1529657750716591,0.00017117759841345519,-29.0646818159446,289.5951461830293,2018.467,0.657168320166706,2.4545352699083427,0.0,0.0,0,0.0,0.0,2.4145192518656473,1.957610570475155,3.552713678800438e-14,3.552713678800438e-14,-0.8063960448694086,1.188133657882068,0.12371126400957891,0.0692380310480026,0.038509283933030845,0.01339924832730864,0.0,-9.996448114224198e-11,0.0,-9.996448114224198e-11,-122.95628801799553,0.9999984783221472,20.0,38.73150784189832,57.65193602593986,903.125,,0.5829898755322199,2,071313_m_41-PA2-050,PA2,0
4.264650087002841,0.025453344028618985,-2.1753549699399433e-05,-57.497516195202415,268.7180826780689,1874.031,0.7730325650695171,2.7041515553188864,0.0,0.0,0,0.0,0.0,2.92314108323301,1.853452072551326,3.552713678800438e-14,3.552713678800438e-14,0.7900022155034773,1.3439752902495026,0.06386421967195652,0.053297757159430435,-0.05631910066524788,0.02004301438221029,0.0,-9.996448114224198e-11,0.0,-9.996448114224198e-11,-245.20678744431723,0.9999987063951098,20.0,35.49371454177002,20.743621948987116,880.078125,,0.520620688675217,2,071313_m_41-PA2-053,PA2,0
4.128489026988636,0.012021054790236501,-1.277044448511757e-05,-72.31149831690588,329.07843110189526,2058.977,0.6699487587596299,2.2414565253088945,0.0,0.0,0,0.0,0.0,2.787767651528546,2.055094260817131,3.552713678800438e-14,3.552713678800438e-14,0.9293606109297226,1.4564630518791903,-0.045078936792520716,0.058332903977655254,-0.08337527582460455,0.015488027521296981,0.0,-9.996448114224198e-11,0.0,-9.996448114224198e-11,-298.5372273264532,0.9999985073507573,20.0,42.297671538491635,44.03419830219676,874.21875,,0.6162902840635981,2,071313_m_41-PA2-054,PA2,0
4.335255602272728,0.02302291262505596,-2.8103924652787272e-05,-6.331283842588784,253.52637768755207,1863.65,0.43307733559130507,1.824061462001564,0.0,0.0,0,0.0,0.0,2.9629056498104562,1.6396944383150855,3.552713678800438e-14,3.552713678800438e-14,0.9958715055693028,1.7270083414189281,0.007248440398575029,0.04947623625550305,-0.039413940438922955,0.012381099174067009,0.0,-9.996448114224198e-11,0.0,-9.996448114224198e-11,-27.447733748161827,0.9999976909489167,16.666666666666664,79.1919333309113,76.59388307694478,840.8203125,,1.1097697546141831,2,071313_m_41-PA2-061,PA2,0
4.235382374289773,0.023436390107519512,7.340260110980009e-06,-35.095365883029125,262.66665857942695,1896.661,0.41743021217343446,1.7412557327499314,0.0,0.0,0,0.0,0.0,2.364833979120945,1.6867062030841244,3.552713678800438e-14,3.552713678800438e-14,-0.07772111212874172,1.0512321019656155,0.07873656652665036,0.037351045849898165,-0.025501322315434845,0.012843482216297969,0.0,-9.996448114224198e-11,0.0,-9.996448114224198e-11,-148.64229408023218,0.9999976043957164,0.0,29.296875,25.478114491340488,832.3567708333334,,0.4064241993585792,2,071313_m_41-PA2-062,PA2,0
4.321703115767045,0.016762846838853145,-1.9961196357314537e-05,2.903057154332382,262.95190861845003,1870.908,0.5789959451266002,2.3157215313556523,0.0,0.0,0,0.0,0.0,2.82971283527177,1.7480671492510849,3.552713678800438e-14,3.552713678800438e-14,0.986741782034579,1.58777257431541,0.004242881692138271,0.04105451890816852,-0.007392402288949046,0.012518123642768301,0.0,-9.996448114224198e-11,0.0,-9.996448114224198e-11,12.546151149128066,0.9999982728751707,0.0,14.151735103700624,12.071513390908159,821.875,,0.19384928571976337,2,071313_m_41-PA2-067,PA2,0
4.22511864453125,0.027702503470000483,-3.3988258531488454e-05,-19.31614243007457,250.77504777406762,1858.408,0.5391814014509765,2.2901639207010898,0.0,0.0,0,0.0,0.0,2.9742081461417693,1.6317716844700305,3.552713678800438e-14,3.552713678800438e-14,0.9897947129572172,1.7948836975543876,0.07347028011163566,0.022752888086941193,-0.019486685722662062,0.012270988893499112,0.0,-9.996448114224198e-11,0.0,-9.996448114224198e-11,-81.61299352172924,0.9999981453400606,0.0,22.735247513325813,17.216328805499227,861.71875,,0.3265231468247976,2,071313_m_41-PA2-071,PA2,0
4.094359675071022,0.00843253537222746,-2.059966300270681e-06,2.6948326048057565,257.35266715818295,1902.413,0.4709945927405306,2.0766441526948123,0.0,0.0,0,0.0,0.0,2.8863763032568674,1.7855638380830203,3.552713678800438e-14,3.552713678800438e-14,0.22691434326662313,1.1115183550937324,-0.032409504512576806,0.021580231941159562,0.0016678006863741907,0.013458309736907127,0.0,-9.996448114224198e-11,0.0,-9.996448114224198e-11,11.033613948183293,0.9999978768378825,33.33333333333333,95.68717979412459,75.49697674557144,841.4713541666666,,1.3419669954035285,2,071313_m_41-PA2-074,PA2,0
4.171276557173296,0.004319073537611206,2.1076815418559175e-07,15.539833300450995,238.34320209631093,1821.505,0.6354913964884275,2.299658445838059,0.0,0.0,0,0.0,0.0,2.614608876622074,1.652283450735643,3.552713678800438e-14,3.552713678800438e-14,-0.22897084851641689,1.1458779035299698,0.08483978749926381,0.05040657146621511,-0.0686915190373444,0.01459562299652108,0.0,-9.996448114224198e-11,0.0,-9.996448114224198e-11,64.82094234855217,0.99999842641705,40.0,50.40424961157789,55.35309244974485,849.21875,,0.7134038882400076,2,071313_m_41-PA2-078,PA2,0
4.3496292720170455,0.03812410829329598,-4.655636995285945e-05,-15.60461366193182,247.07237905300155,1847.563,0.6415787887007229,2.3239861466083798,0.0,0.0,0,0.0,0.0,2.8964000719559286,1.620877322789944,3.552713678800438e-14,3.552713678800438e-14,0.9927060960206365,1.8057072830305498,0.03697399661955985,0.026138709058802386,0.0010590723564149543,0.013494747088673794,0.0,-9.996448114224198e-11,0.0,-9.996448114224198e-11,-67.87428436245574,0.9999984413474089,0.0,14.151735103700624,8.332316018633415,886.328125,,0.2090513444803884,2,071313_m_41-PA2-080,PA2,0
3.6001294769176138,0.032078529460400705,1.8729953227483383e-05,18.200110423490766,262.99846627857994,1907.937,0.7664416011570381,2.22437160925656,0.0,0.0,0,0.0,0.0,2.7919852495119963,1.7944503553285656,3.552713678800438e-14,3.552713678800438e-14,-0.3196348740218396,1.368197456681179,0.06507397975199092,0.03224570406343341,-0.001246712611173463,0.012701789504065114,0.0,-9.996448114224198e-11,0.0,-9.996448114224198e-11,65.52275401876463,0.9999986952708546,20.0,42.36525774117942,37.24789115517565,902.734375,,0.6374095655941875,2,071313_m_41-PA3-003,PA3,1
3.7211568313210224,0.029761757519129156,1.2610363780459035e-05,10.987879861434658,257.86393856327913,1904.627,0.8697412147556931,2.642058051072059,0.0,0.0,0,0.0,0.0,2.502401598754379,1.750964543738086,3.552713678800438e-14,3.552713678800438e-14,-0.15401952254829931,1.1215855401843013,-0.05069954041548159,0.03471042352021779,-0.05931823045507482,0.012705551842141628,0.0,-9.996448114224198e-11,0.0,-9.996448114224198e-11,40.887624208112264,0.9999988502340313,0.0,18.885819927552458,18.855497478354952,917.578125,,0.2888202498680316,2,071313_m_41-PA3-005,PA3,1
3.8552158927556817,0.01659790996885991,5.173163004860074e-06,-2.619369619790477,254.23067559188618,1747.325,0.9788110679412864,2.9225366964507042,0.0,0.0,0,0.0,0.0,1.7929269548927753,1.90730448805015,3.552713678800438e-14,3.552713678800438e-14,-0.14371355586697712,0.711485226554736,0.02754728604091422,0.03948717688169822,-0.007740969390964733,0.011478070157388828,0.0,-9.996448114224198e-11,0.0,-9.996448114224198e-11,-10.098235387217654,0.9999989783534217,16.666666666666664,38.422491353332035,47.80437192622048,809.8958333333334,,0.5186369211955042,2,071313_m_41-PA3-009,PA3,1
3.8615218373579547,0.08225192379630404,8.238697836623934e-05,9.116530594723013,262.76621213119165,1815.91,0.7766517683739788,2.649544557969202,0.0,0.0,0,0.0,0.0,2.249882574095011,1.6954945197630658,3.552713678800438e-14,3.552713678800438e-14,-0.681841341865791,0.9610829038366426,-0.04949137368040063,0.04354666906236472,0.08350397571908176,0.016845549649881216,0.0,-9.996448114224198e-11,0.0,-9.996448114224198e-11,35.203681972464814,0.999998712423311,0.0,21.661204114080892,19.81403358532969,908.69140625,,0.3280558291842024,2,071313_m_41-PA3-010,PA3,1
3.955401965909091,0.043824703982928516,7.4315311304728485e-06,5.32087645603338,265.9332427557543,1863.05,0.7476800318152071,2.6184846568616282,0.0,0.0,0,0.0,0.0,2.5596853949613485,1.7975456712448061,3.552713678800438e-14,3.552713678800438e-14,0.026137325929616817,1.1593758383662032,0.12198582206404474,0.05694516333849326,0.09943075708514638,0.020566788588553535,0.0,-9.996448114224198e-11,0.0,-9.996448114224198e-11,21.046205194553828,0.99999866253127,20.0,44.84750977814466,39.62004448261874,892.578125,,0.6671650939674344,2,071313_m_41-PA3-011,PA3,1
3.908056752130682,0.08585577265274634,7.5750364184518e-05,25.99122033192471,398.5818668912246,2506.118,1.0190156064495912,2.654628552981065,0.0,0.0,0,0.0,0.0,2.4291267937196097,2.1256233056752563,3.552713678800438e-14,3.552713678800438e-14,-0.5676725579418999,1.1438474315504503,-0.10932335635617901,0.06241612109670294,-0.03428318351247391,0.015941753579272307,0.0,-9.996448114224198e-11,0.0,-9.996448114224198e-11,101.57516411429462,0.9999990186617239,16.666666666666664,77.02843713170562,94.9688830360618,739.2578125,,0.9490645551617253,2,071313_m_41-PA3-012,PA3,1
4.325527718394887,0.08609123286674977,8.250379685280514e-05,2.6332484865411887,250.0929910624348,1776.264,0.5652173948695502,2.2249477927033214,0.0,0.0,0,0.0,0.0,2.3258160358635593,1.799082262452212,3.552713678800438e-14,3.552713678800438e-14,-0.638760408519711,1.034350352238285,0.0288153208740076,0.05075612858184772,-0.02356868425524741,0.013058876620101956,0.0,-9.996448114224198e-11,0.0,-9.996448114224198e-11,11.390189317955297,0.999998230772372,20.0,115.62269053859114,132.60841396788564,844.921875,,1.6282023203721687,2,071313_m_41-PA3-021,PA3,1
4.39934846981534,0.15323130736145532,0.00015966692716192808,29.312279217968747,289.2988375954258,1813.325,0.886595799872093,2.612948346286455,0.0,0.0,0,0.0,0.0,2.4589934272278713,2.0486099869534184,3.552713678800438e-14,3.552713678800438e-14,-0.7196435803878263,1.09041528842772,0.04104277106342866,0.033076379711759626,0.036770256710652996,0.013394089905665412,0.0,-9.996448114224198e-11,0.0,-9.996448114224198e-11,128.9549307243708,0.9999988720915751,20.0,34.12383830010967,32.12282070976275,835.9375,,0.4754232619282938,2,071313_m_41-PA3-022,PA3,1
4.158267681463069,0.07222546984696955,7.233566215875189e-05,8.537859659122876,254.61296327030755,1775.14,0.7405748492510871,2.715710876794126,0.0,0.0,0,0.0,0.0,2.4369854232810106,1.8626217004473358,3.552713678800438e-14,3.552713678800438e-14,-0.6785550466158257,1.1279163641432717,-0.06966252844843132,0.02596181368702823,0.00340416207777286,0.010647792239351011,0.0,-9.996448114224198e-11,0.0,-9.996448114224198e-11,35.50270588939795,0.9999986496994183,0.0,24.72458769760188,34.51012150555435,814.0625,,0.3354559904036913,2,071313_m_41-PA3-024,PA3,1
3.89959979296875,0.0819489878162467,6.632507635262137e-05,-14.217685365660513,260.155696795853,1917.45,0.893100592300163,2.962353354482525,0.0,0.0,0,0.0,0.0,2.011655432691458,1.7879295569851978,3.552713678800438e-14,3.552713678800438e-14,-0.5110601588180437,0.7235327928042595,0.07863495096489127,0.07516424333965847,0.05552340074267549,0.014311763998166662,0.0,-9.996448114224198e-11,0.0,-9.996448114224198e-11,-55.443282908424564,0.9999988803065534,0.0,27.500249688142038,36.87735857128751,855.46875,,0.39209339862465603,2,071313_m_41-PA3-027,PA3,1
3.6641534183238633,0.03853445173039788,1.7187900432564905e-05,-57.76444348700284,322.80772726309146,1844.295,0.7172524104699158,2.3759475919553292,0.0,0.0,0,0.0,0.0,1.9791041784601144,2.1523915262867384,3.552713678800438e-14,3.552713678800438e-14,-0.21888223769876172,0.8091763616471358,-0.0804971586853096,0.06328134301229298,0.010485376363978935,0.015052395624046684,0.0,-9.996448114224198e-11,0.0,-9.996448114224198e-11,-211.6577830604771,0.9999986057926175,0.0,20.414594687858273,31.17055330844622,853.90625,,0.29053582945838685,2,071313_m_41-PA3-032,PA3,1
4.139673399857955,0.03031372041171271,-1.255879353997364e-06,-62.18755958632813,265.09901216762177,1756.133,0.7056258023821042,2.502426848731606,0.0,0.0,0,0.0,0.0,2.464031600112424,1.9711446564045783,3.552713678800438e-14,3.552713678800438e-14,0.1902789701880374,1.1991863702385532,-0.029784818473425595,0.04630671098876406,-0.05162101825917695,0.015063658642919827,0.0,-9.996448114224198e-11,0.0,-9.996448114224198e-11,-257.4361862216041,0.9999985828202718,0.0,17.249532942046574,16.937096397405313,898.828125,,0.2584060856068722,2,071313_m_41-PA3-039,PA3,1
4.163812386363636,0.03289861702356319,-2.3457337913247035e-05,-28.2743046360174,315.5595208075135,2215.003,0.3761354784766608,1.5975567266156672,0.0,0.0,0,0.0,0.0,2.818522353565635,1.979331690370722,3.552713678800438e-14,3.552713678800438e-14,0.687958238466646,1.3677122170798706,0.07690887540276078,0.06279543892079706,-0.08395505400952966,0.014511727659185058,0.0,-9.996448114224198e-11,0.0,-9.996448114224198e-11,-117.72889985926804,0.9999973413905399,20.0,39.967542831408444,36.763395398289006,895.703125,,0.5966508753034897,2,071313_m_41-PA3-043,PA3,1
4.007030371803977,0.11382211938892499,0.00012845757592819758,-92.7020462523544,299.6522549512114,1885.101,0.7630963968390234,2.7811689211270707,0.0,0.0,0,0.0,0.0,2.3125311044828503,2.0850873725249546,3.552713678800438e-14,3.552713678800438e-14,-0.8161850033979872,1.140617584983634,0.13941613311260137,0.07047937634995623,-0.009990898070104658,0.010086094385808982,0.0,-9.996448114224198e-11,0.0,-9.996448114224198e-11,-371.4599148615612,0.999998689551289,16.666666666666664,87.5993437163273,87.45115824347326,798.828125,,1.166280310801435,2,071313_m_41-PA3-049,PA3,1
4.525768557883523,0.06905135164836977,-4.739557158382051e-05,-14.651645215387061,303.6657844217386,2145.994,0.3511364604795879,1.5952239641928871,0.0,0.0,0,0.0,0.0,2.8965280423573203,1.9230486040019494,3.552713678800438e-14,3.552713678800438e-14,0.6791105595680144,1.2575711060174508,0.007926830161054043,0.06223631205104716,0.0050654270044140776,0.010231932217006632,0.0,-9.996448114224198e-11,0.0,-9.996448114224198e-11,-66.30995523706332,0.9999971521124559,25.0,40.81361463192052,49.37197132720522,954.1015625,,0.6490055485530773,2,071313_m_41-PA3-052,PA3,1
4.507732373579546,0.09488238217612285,9.614912598048989e-05,4.8335297082031214,293.71253651881625,1985.386,0.5190972239419115,2.032738541076028,0.0,0.0,0,0.0,0.0,2.4285948013798033,1.9349081152898835,3.552713678800438e-14,3.552713678800438e-14,-0.6933675741547611,1.1756037494884672,-0.03311959776426002,0.03504464819791649,-0.04787238356017536,0.016625137720384552,0.0,-9.996448114224198e-11,0.0,-9.996448114224198e-11,21.788258344325705,0.9999980735823127,0.0,17.41460400403028,18.652088103614567,850.0,,0.24670688685232478,2,071313_m_41-PA3-060,PA3,1
4.0549194875710235,0.010751038557680732,-6.4015419236297065e-06,0.30995267329545456,278.26706150886605,1904.244,0.38279402108290533,1.7677257123736125,0.0,0.0,0,0.0,0.0,2.8241175183939577,1.8966571134496242,3.552713678800438e-14,3.552713678800438e-14,0.6045213157598612,1.3605148980133996,0.00582923836728662,0.03632420946582379,-0.013846921253079496,0.009241543790328363,0.0,-9.996448114224198e-11,0.0,-9.996448114224198e-11,1.2568331351704736,0.9999973876358236,0.0,13.948102399497754,8.468548198702656,864.0625,,0.20086720116587192,2,071313_m_41-PA3-064,PA3,1
4.193969046164773,0.21034589118679645,0.00019463948456462083,-43.56342808708808,710.33078834112,3031.176,2.27815457906137,5.190668469813085,0.0,0.0,0,0.0,0.0,1.6198852977047735,2.377874067755085,3.552713678800438e-14,3.552713678800438e-14,-0.6163085862155211,0.6856250206569312,0.1176354505176642,0.059918414009374414,-0.017944594965622764,0.009076080242333431,0.0,-9.996448114224198e-11,0.0,-9.996448114224198e-11,-182.70366894207248,0.9999995610484159,20.0,47.07801091091387,50.8263021307005,786.71875,,0.6172858909628024,2,071313_m_41-PA3-065,PA3,1
4.305557185724433,0.24124166304048672,0.00028449812149772003,-2.523804807858679,392.0507393993076,2236.072,0.3796609661586762,1.7339657665287265,0.0,0.0,0,0.0,0.0,2.359279345336589,2.185737351917834,3.552713678800438e-14,3.552713678800438e-14,-0.9456803249860117,1.3496445557659607,-0.10129639824379746,0.04721852241367387,-0.011070439551826804,0.01089603603303823,0.0,-9.996448114224198e-11,0.0,-9.996448114224198e-11,-10.866385925841806,0.9999973660780138,0.0,11.554843326366438,13.76918494688638,853.90625,,0.16444588008814282,2,071313_m_41-PA3-070,PA3,1
4.089406577414773,0.013379248018406764,-1.3010288383301064e-05,-13.269321517187496,247.0811627303273,1825.919,0.41622051028839524,1.8881003849956142,0.0,0.0,0,0.0,0.0,2.961137948163564,1.6064363293098174,3.552713678800438e-14,3.552713678800438e-14,0.8492647025423898,1.4347393540928621,-0.055479503088672326,0.028497380742087842,-0.03993378681181771,0.009521341266162064,0.0,-9.996448114224198e-11,0.0,-9.996448114224198e-11,-54.26365069021792,0.999997597433157,25.0,44.723292957280194,54.13539668568437,911.62109375,,0.6795116111180602,2,071313_m_41-PA3-075,PA3,1
18.39863577059659,0.8004270755694499,0.0009555654005558483,-15.439059491740052,213.3630497336444,1265.826,0.3740151950215383,1.5547972374750871,0.0,0.0,0,0.0,0.0,2.605693511484836,1.9852364764309738,3.552713678800438e-14,3.552713678800438e-14,-0.874571356987093,1.2403104068825146,0.0863418191569052,0.06433533730632378,-0.04353488221964559,0.015498424082723911,0.0,-9.996448114224198e-11,0.0,-9.996448114224198e-11,-284.05763222909735,0.9999973263189849,50.0,91.81765057455593,91.16966299355325,1102.05078125,,1.6864618630246653,3,071614_m_20-PA2-012,PA2,0
17.238509623579546,0.7811776165593991,0.0008926948658775597,3.3532876114595167,184.83472281463887,1217.168,0.37347545003044047,1.645390344849166,0.0,0.0,0,0.0,0.0,2.233953300377029,1.7378141634725726,3.552713678800438e-14,3.552713678800438e-14,-0.8697111437704236,1.0959799390851759,0.020485093430169972,0.04494261858655249,-0.014813891003466612,0.01402013833332871,0.0,-9.996448114224198e-11,0.0,-9.996448114224198e-11,57.80568076077495,0.9999973224550038,50.0,108.89146278436023,68.7211409599968,1044.921875,,1.8963844931907374,3,071614_m_20-PA2-013,PA2,0
15.993529623579546,0.5819722200860776,0.0005615843611253322,18.19023640261719,197.4861526582629,1229.754,0.3527277690795495,1.6662435418259922,0.0,0.0,0,0.0,0.0,2.5167269090099804,1.7738618502773336,3.552713678800438e-14,3.552713678800438e-14,-0.45688484938220203,0.9550373241648136,0.04926118772577506,0.05266935913897075,0.02314674088554351,0.019122965240682705,0.0,-9.996448114224198e-11,0.0,-9.996448114224198e-11,290.9260847651731,0.9999971649604806,25.0,64.1961417269777,49.268844381543076,989.2578125,,1.0584422292148972,3,071614_m_20-PA2-020,PA2,0
14.98447440696023,0.5324123821972756,0.0005301545569153022,4.5092821764098066,199.63466585574872,1219.983,0.33095544373252445,1.5148020082325657,0.0,0.0,0,0.0,0.0,1.5453056121777968,1.9089198690536102,3.552713678800438e-14,3.552713678800438e-14,-0.524987783545485,0.5094270879875671,0.029806892525481136,0.04256578551018906,0.01286293398491601,0.011017372675525716,0.0,-9.996448114224198e-11,0.0,-9.996448114224198e-11,67.56922336617467,0.9999969784543589,25.0,55.02361368677126,49.779149906986554,1007.32421875,,0.9237769632384896,3,071614_m_20-PA2-021,PA2,0
14.357968568892046,0.3161940371057849,0.00025637007953161986,-4.5332794260369305,188.5473808844904,1154.4,0.2526216980352532,1.2275217682693125,0.0,0.0,0,0.0,0.0,1.8468310838551567,1.8211552717373352,3.552713678800438e-14,3.552713678800438e-14,-0.36303847997191324,0.35782738289173155,0.03181942561839954,0.04492164592125769,0.011949026685438392,0.012175323432134172,0.0,-9.996448114224198e-11,0.0,-9.996448114224198e-11,-65.08868351304322,0.9999960415275122,25.0,52.22555452000366,35.205947223293435,1011.23046875,,0.8802011856688547,3,071614_m_20-PA2-022,PA2,0
16.20428014914773,0.4945329962513824,0.0003997706612742827,12.184773497666903,187.91799590844985,1173.264,0.6778576581582519,1.9399271582003959,0.0,0.0,0,0.0,0.0,1.7112863177704334,1.7334554207942259,3.552713678800438e-14,3.552713678800438e-14,-0.35898518112383093,0.3267058145563358,-0.019346443544499464,0.04568768905050632,0.03157289382337691,0.014125860971095234,0.0,-9.996448114224198e-11,0.0,-9.996448114224198e-11,197.44548331010517,0.9999985247662061,25.0,60.66227242341748,44.80495994904087,1037.59765625,,1.0490505110251152,3,071614_m_20-PA2-030,PA2,0
15.984633654119317,0.17769970676452207,-3.0049039667201124e-05,20.140837582968746,198.2226329681951,1189.413,1.2114210084230066,2.424211692754844,0.0,0.0,0,0.0,0.0,2.6015521291965142,1.7523382526511941,3.552713678800438e-14,3.552713678800438e-14,0.1549803129565538,0.9462746093970464,-0.008075435223925637,0.04371399612278621,-0.05931179103367368,0.012330012891690818,0.0,-9.996448114224198e-11,0.0,-9.996448114224198e-11,321.9439102508734,0.9999991745238299,40.0,89.36480697447927,84.89917834348243,978.515625,,1.4574143102149844,3,071614_m_20-PA2-031,PA2,0
16.157261732954545,0.850104765533306,0.0009538477798512967,22.41225598075639,211.83561741004945,1211.416,0.6567362549812301,3.0620504096983066,0.0,0.0,0,0.0,0.0,2.129473584960505,1.930380817263209,3.552713678800438e-14,3.552713678800438e-14,-0.6845785910375921,0.7461267173541397,0.08115154129563922,0.052359366078032654,-0.05237974988309283,0.018259250018250066,0.0,-9.996448114224198e-11,0.0,-9.996448114224198e-11,362.1206859070569,0.9999984773210405,50.0,94.795333176572,58.90757969874116,969.7265625,,1.5320925198573982,3,071614_m_20-PA2-036,PA2,0
14.994082897727274,0.61246992818756,0.0006291095894128555,1.9609133907350853,208.5016607600253,1197.892,0.419717657977881,1.6401070091768013,0.0,0.0,0,0.0,0.0,1.828477105412589,1.8681834233037014,3.552713678800438e-14,3.552713678800438e-14,-0.5410084453146988,0.6355934914640142,0.009286623478326506,0.048319742425301654,0.006703784771161576,0.01210578126541857,0.0,-9.996448114224198e-11,0.0,-9.996448114224198e-11,29.402097935945342,0.9999976174516406,60.0,76.99995600711507,79.10276812352832,930.46875,,1.1941008630320296,3,071614_m_20-PA2-043,PA2,0
14.571962748579544,0.4360650609548489,0.0003710342971671728,-22.64608013173296,209.91640113309361,1197.134,0.45817543764756263,1.5628573435905195,0.0,0.0,0,0.0,0.0,1.8162924303168113,1.8685144942552312,3.552713678800438e-14,3.552713678800438e-14,-0.3823628961864467,0.3386456780044981,0.12655100772317268,0.07022578175637312,0.03959168162905487,0.02752277715343707,0.0,-9.996448114224198e-11,0.0,-9.996448114224198e-11,-329.99783608096,0.9999978174346872,40.0,52.09757292323883,42.509082496880154,939.0625,,0.8153812726605426,3,071614_m_20-PA2-049,PA2,0
14.65265705965909,0.5878656765509528,0.0005842242841186629,3.5268073478338136,215.25336678293596,1162.227,0.5896372383821461,1.7646905181578192,0.0,0.0,0,0.0,0.0,2.0607725725788835,2.013580717969683,3.552713678800438e-14,3.552713678800438e-14,-0.5047227253159602,0.5723282780493982,0.14414654540953553,0.0509007183746563,0.02869726497727807,0.01165577618574943,0.0,-9.996448114224198e-11,0.0,-9.996448114224198e-11,51.67709858329468,0.9999983040448619,20.0,51.637906509383924,62.178739764576584,886.71875,,0.7631383214594437,3,071614_m_20-PA2-050,PA2,0
14.967009889914772,0.5616453686098082,0.0006313738172995055,22.663185753312153,225.28131118763005,1265.152,0.8241082787925204,2.1633356197554425,0.0,0.0,0,0.0,0.0,2.211582009325148,2.022448440791314,3.552713678800438e-14,3.552713678800438e-14,-0.6451707525030617,0.7588108580136109,0.039954674400291504,0.0760531373734999,-0.02084980609542529,0.013767585443971752,0.0,-9.996448114224198e-11,0.0,-9.996448114224198e-11,339.20012530679855,0.9999987865686921,25.0,78.94266125661106,83.79490497793059,978.515625,,1.2874437722972478,3,071614_m_20-PA2-053,PA2,0
14.560702006392045,0.4616827881828816,0.00048704990251509985,28.994609489662636,195.76241589511716,1175.064,0.6499151774195112,1.9135256776348901,0.0,0.0,0,0.0,0.0,2.1825148080499117,1.8248751688005913,3.552713678800438e-14,3.552713678800438e-14,-0.5664821623618874,0.6921919893016636,-0.06704949762917534,0.033380747699651145,-0.05242253244879029,0.013047799723814167,0.0,-9.996448114224198e-11,0.0,-9.996448114224198e-11,422.18186857068457,0.9999984613400392,75.0,61.453643447469815,47.42783803805041,1006.8359375,,1.0312289289399883,3,071614_m_20-PA2-054,PA2,0
14.281796480823862,0.49041573659854043,0.000522600315572923,21.634688170606537,204.5384463904286,1199.688,0.9440560309644798,2.8506250240660287,0.0,0.0,0,0.0,0.0,1.936865865874413,1.7360316604794983,3.552713678800438e-14,3.552713678800438e-14,-0.5835526654663739,0.6727906817998299,0.12484152752040784,0.04654274885040327,0.0005533061335018415,0.008018980267400085,0.0,-9.996448114224198e-11,0.0,-9.996448114224198e-11,308.9822133786901,0.9999989407419603,50.0,123.00036323307647,107.45590133449197,1010.25390625,,2.071026590952034,3,071614_m_20-PA2-055,PA2,0
14.763807247869318,0.346722964698343,0.0003369065170978141,-7.143244274218755,201.84489944399553,1169.88,0.5076936129254785,1.6774761552126518,0.0,0.0,0,0.0,0.0,2.239435200095986,1.8824383892186496,3.552713678800438e-14,3.552713678800438e-14,-0.48907298981614056,0.6453482231844923,0.030800958926638464,0.044501207417106156,0.0013035126175715553,0.009753686178024058,0.0,-9.996448114224198e-11,0.0,-9.996448114224198e-11,-105.46148158901187,0.9999980303119739,25.0,43.23426488511456,47.47808118011482,960.44921875,,0.6920719218445528,3,071614_m_20-PA2-062,PA2,0
14.652528345170454,0.5927088043653397,0.0006642798859088056,-9.540488736747163,258.5550674391403,1270.396,3.812286545139618,16.411997843539332,0.0,0.0,0,0.0,0.0,2.464675444883221,2.0704213943768006,3.552713678800438e-14,3.552713678800438e-14,-0.7012409436617144,0.9367995489679546,0.14561170556784686,0.04724060781744743,-0.026117617086494297,0.005819497744996281,0.0,-9.996448114224198e-11,0.0,-9.996448114224198e-11,-139.79228164196726,0.9999997376903006,20.0,79.30024238539761,101.06926505070977,873.828125,,1.154913019763038,3,071614_m_20-PA2-063,PA2,0
14.843241161221592,0.3979023049605697,0.00045409132365179574,6.090516996057532,209.8000318505115,1264.734,0.7722430090660892,2.4117077140728838,0.0,0.0,0,0.0,0.0,2.5855916257431533,1.8913707478780866,3.552713678800438e-14,3.552713678800438e-14,-0.6699102205097339,0.8941510171213018,-0.024914976624838277,0.03921265326593931,-0.017612053201941154,0.009404250304869171,0.0,-9.996448114224198e-11,0.0,-9.996448114224198e-11,90.40301256900084,0.9999987050725052,60.0,95.58347111907935,105.9252994679874,991.40625,,1.5793674865656406,3,071614_m_20-PA2-065,PA2,0
14.39307795809659,0.4545777115136949,0.0004905647552403202,6.0200429991761375,201.34897625487113,1139.715,0.48600818868066575,1.3641464087733504,0.0,0.0,0,0.0,0.0,2.0644572070645695,1.721087873733021,3.552713678800438e-14,3.552713678800438e-14,-0.5901105021459079,0.6977273052374059,0.1157803322721845,0.03639752783510119,0.004609364214653456,0.009579208191651992,0.0,-9.996448114224198e-11,0.0,-9.996448114224198e-11,86.64694819823576,0.9999979424257334,60.0,85.54821274638975,129.91584988660088,917.96875,,1.308843080060144,3,071614_m_20-PA2-066,PA2,0
14.05191623224432,0.4632239017018957,0.0004767654035125257,4.239977388100141,196.11513802782142,1159.839,0.408420673676693,1.5853890059227924,0.0,0.0,0,0.0,0.0,2.0888755686204616,1.6888988342797766,3.552713678800438e-14,3.552713678800438e-14,-0.5455420344275158,0.6539095924542754,-0.06736595145129905,0.04882333806780408,-0.05874185445740698,0.008923893739017376,0.0,-9.996448114224198e-11,0.0,-9.996448114224198e-11,59.57980708419325,0.9999975515501149,40.0,75.80792459013809,67.63849814021644,925.0,,1.1687054873438847,3,071614_m_20-PA2-068,PA2,0
14.019840241477272,0.347963183316311,0.000323155818901192,7.519496217368612,208.37038003488442,1162.46,0.42740794836876606,1.3548012662875681,0.0,0.0,0,0.0,0.0,1.5218710593669904,1.953265948060985,3.552713678800438e-14,3.552713678800438e-14,-0.45052537710060025,0.3828070081082397,0.06301357325903639,0.04161948667871561,-0.015973246240861827,0.010613957488323379,0.0,-9.996448114224198e-11,0.0,-9.996448114224198e-11,105.4221356639006,0.9999976603203938,25.0,91.24111463232438,103.55860939307308,998.046875,,1.5177151317799733,3,071614_m_20-PA2-074,PA2,0
19.754434282670456,0.7866979919889299,0.0008692442140210195,1.1588018499396329,178.23110491219006,1218.399,0.21998831341268898,1.121865063340278,0.0,0.0,0,0.0,0.0,2.2216415844851563,1.719158924729167,3.552713678800438e-14,3.552713678800438e-14,-0.6860936783347734,0.8726304324718543,-0.18181444853983797,0.04450706136500304,-0.04528323636742261,0.007417889966716736,0.0,-9.996448114224198e-11,0.0,-9.996448114224198e-11,22.89147499126943,0.9999954543246465,33.33333333333333,83.60880778517185,54.97737534777564,1125.6510416666667,,1.5685723315638425,3,071614_m_20-PA3-003,PA3,1
19.654743327414774,0.864318788936077,0.0008894083790790878,-17.20038474636008,216.28326731469633,1274.623,0.36633257199365726,1.5090872428984181,0.0,0.0,0,0.0,0.0,2.5375406109611744,2.001832512348381,3.552713678800438e-14,3.552713678800438e-14,-0.5771805293404996,1.145269431556106,0.1676153848011454,0.08527921203551206,0.013097256689290977,0.011084284121609424,0.0,-9.996448114224198e-11,0.0,-9.996448114224198e-11,-338.06914732248765,0.9999972702474563,50.0,132.41937835650384,142.64833994533606,1023.92578125,,2.2597935542480174,3,071614_m_20-PA3-006,PA3,1
18.187178668323863,0.8734891548778624,0.0008909787593389646,9.82944310989702,187.9092769189376,1217.047,0.32291796747031964,1.3125095747618845,0.0,0.0,0,0.0,0.0,2.3643490499824624,1.7142728380325312,3.552713678800438e-14,3.552713678800438e-14,-0.5567823253431414,0.95212655092792,0.019448449592324328,0.034913177424690814,-0.12827344779532052,0.027619313914258065,0.0,-9.996448114224198e-11,0.0,-9.996448114224198e-11,178.76983804982208,0.9999969032478712,50.0,65.17899345763972,64.88325149108967,1071.77734375,,1.1642894548941278,3,071614_m_20-PA3-007,PA3,1
17.686089193892045,1.3989219225374658,0.0015693902930052287,-12.391237109474435,228.86061398022653,1334.868,0.3682219855562527,1.4920979755560486,0.0,0.0,0,0.0,0.0,1.9061338565852313,2.0000621416529625,3.552713678800438e-14,3.552713678800438e-14,-0.6887495495021813,0.7902749361285848,0.13011551779562539,0.05519459119271193,0.046613194517367514,0.012148721309026715,0.0,-9.996448114224198e-11,0.0,-9.996448114224198e-11,-219.1525247408299,0.999997284254272,75.0,112.78627494116546,68.5822260393728,1024.4140625,,1.925664070780503,3,071614_m_20-PA3-018,PA3,1
17.101515355113637,1.0659160656782352,0.001278307239709868,7.279249660522013,213.17789740392283,1199.182,1.4578702807908324,3.0126686352669094,0.0,0.0,0,0.0,0.0,2.5478427405134436,1.8555177745273264,3.552713678800438e-14,3.552713678800438e-14,-0.8136555084799998,1.0558529242472825,0.10291705438763223,0.039664792728381144,0.06672156334820552,0.009951149272672304,0.0,-9.996448114224198e-11,0.0,-9.996448114224198e-11,124.48619984312293,0.9999993140683865,20.0,94.87243118125616,105.7522953586957,901.953125,,1.4261747431468517,3,071614_m_20-PA3-029,PA3,1
16.342008178267044,0.8674240042328215,0.00101534351040543,16.085233949783017,222.5881136501748,1184.281,0.5199985739261213,1.7420879027251934,0.0,0.0,0,0.0,0.0,2.6755909892315377,1.9845303524975906,3.552713678800438e-14,3.552713678800438e-14,-0.7235907582658713,1.1006707562883808,0.04876519267232455,0.05162523741038415,-0.034019172024877836,0.01080203019700422,0.0,-9.996448114224198e-11,0.0,-9.996448114224198e-11,262.8650247566928,0.9999980769215011,50.0,106.27943640947493,87.03285129062498,899.4140625,,1.593153638910515,3,071614_m_20-PA3-032,PA3,1
16.84722158025568,0.9378710026195716,0.001055126319163369,-7.272636953309654,221.6985538983245,1272.905,0.40092146569625003,1.5304691324835302,0.0,0.0,0,0.0,0.0,2.5708889238179267,2.012162562484422,3.552713678800438e-14,3.552713678800438e-14,-0.6500397921977867,0.985195021110898,0.03801350355861062,0.053452494906229275,-0.02006762608220925,0.008226919464392116,0.0,-9.996448114224198e-11,0.0,-9.996448114224198e-11,-122.52372622516333,0.9999975057521453,75.0,76.48007893535632,98.68597731765453,946.2890625,,1.2062043521787738,3,071614_m_20-PA3-035,PA3,1
16.071677173295456,0.7482186331209589,0.0008906254550069651,9.76421776878196,233.59108494146608,1242.899,0.378765709679258,1.3803387361486261,0.0,0.0,0,0.0,0.0,2.7432015656589224,1.9150064402808495,3.552713678800438e-14,3.552713678800438e-14,-0.8181064020123858,1.2076731599861352,0.12651283410823505,0.05172247207033116,0.022379498069991826,0.010010372826551827,0.0,-9.996448114224198e-11,0.0,-9.996448114224198e-11,156.9273558296189,0.9999973598524516,25.0,113.55592597292186,134.69838109505588,936.03515625,,1.7715389561085089,3,071614_m_20-PA3-037,PA3,1
16.446075561079546,0.8776718630476606,0.0010126965821476233,6.861510541534089,222.3769732822176,1226.316,0.5728171504064622,1.7796379153476336,0.0,0.0,0,0.0,0.0,2.2483544968195175,1.979383217110061,3.552713678800438e-14,3.552713678800438e-14,-0.7302244291106058,0.9077493550325937,0.1253851986998107,0.0588482106007876,0.008093544766717156,0.01042576811300786,0.0,-9.996448114224198e-11,0.0,-9.996448114224198e-11,112.84492082921345,0.9999982542452621,25.0,80.33970234844973,95.11671960442754,903.3203125,,1.209541400321583,3,071614_m_20-PA3-040,PA3,1
15.262081718749998,0.75077967173637,0.0008389702686907212,-25.34943471737571,225.579194639657,1132.627,1.9154773040881559,4.039764884720842,0.0,0.0,0,0.0,0.0,2.624483043801443,1.974520774479827,3.552713678800438e-14,3.552713678800438e-14,-0.6417086655197423,1.0106032411285244,0.029712198586646595,0.037174362359151086,-0.0021542321391441136,0.011280098404359772,0.0,-9.996448114224198e-11,0.0,-9.996448114224198e-11,-386.8851441807064,0.9999994779371827,33.33333333333333,51.660063947223776,85.69746306502456,837.890625,,0.7214247119244059,3,071614_m_20-PA3-045,PA3,1
15.127620656960227,0.7367735435809084,0.0008592893631318097,15.816538860369322,210.4574413987798,1220.216,0.7686082691561811,1.989945010161114,0.0,0.0,0,0.0,0.0,2.386195451583188,1.9102987786667105,3.552713678800438e-14,3.552713678800438e-14,-0.7130317411539101,0.8614754005884937,-0.05301728154594358,0.05028474512866427,-0.06934801447265629,0.010620780321913737,0.0,-9.996448114224198e-11,0.0,-9.996448114224198e-11,239.26659998573712,0.9999986989488155,40.0,70.70474359335138,93.83541031250209,905.859375,,1.0674758990788373,3,071614_m_20-PA3-046,PA3,1
15.238981381392046,0.7857530064707903,0.0009286108062371288,-8.171627520578834,210.76479853995167,1132.729,0.4477004310176438,1.6330143710781997,0.0,0.0,0,0.0,0.0,2.4030576198602054,1.864374530834241,3.552713678800438e-14,3.552713678800438e-14,-0.7917019791792848,1.0308467390579001,0.04009637284083176,0.04930541010191667,0.08476740923964433,0.015127473865431694,0.0,-9.996448114224198e-11,0.0,-9.996448114224198e-11,-124.5272796417717,0.9999977663685423,40.0,79.42641627964429,94.44929621582186,880.859375,,1.1660583742478376,3,071614_m_20-PA3-048,PA3,1
14.614567578125001,0.898228619857911,0.0010133767349172341,-4.675215847794747,243.025072131927,1236.312,2.3390160805302256,5.078139806589542,0.0,0.0,0,0.0,0.0,2.2111143336402743,2.1083827771907306,3.552713678800438e-14,3.552713678800438e-14,-0.6529133456359543,0.7590992990236343,0.12928799961432008,0.07006687044378465,0.0022998647942301612,0.010198558964976453,0.0,-9.996448114224198e-11,0.0,-9.996448114224198e-11,-68.3262579499173,0.9999995724699882,20.0,38.29818662329605,22.036582355575522,860.15625,,0.5490404025622023,3,071614_m_20-PA3-056,PA3,1
14.848805475852272,0.707240077196029,0.0007747571611671452,4.326809954907671,208.78421389188438,1170.299,1.2294917901451754,2.592534060720624,0.0,0.0,0,0.0,0.0,2.3566099832677807,1.8997029238689351,3.552713678800438e-14,3.552713678800438e-14,-0.6053415655761698,0.758330978631535,0.17030493525410567,0.04837297760082449,-0.01799993913437138,0.008044662221261321,0.0,-9.996448114224198e-11,0.0,-9.996448114224198e-11,64.24795935140514,0.999999186656475,20.0,52.106724890445705,64.76310402964552,916.015625,,0.7955095581772036,3,071614_m_20-PA3-057,PA3,1
15.327232105823866,0.6696654267217723,0.0007766483157681425,6.820614266551853,230.61100059360672,1205.849,0.8647118600473881,2.0225408921395034,0.0,0.0,0,0.0,0.0,2.4559761947983723,1.991647827551374,3.552713678800438e-14,3.552713678800438e-14,-0.7299122091261389,0.9174370820085872,0.06378068221589617,0.04071558420493196,0.016589301119749496,0.012351398333518412,0.0,-9.996448114224198e-11,0.0,-9.996448114224198e-11,104.54113796773386,0.9999988435467468,40.0,72.75226770386396,99.52891971369426,852.34375,,1.0334989977928526,3,071614_m_20-PA3-061,PA3,1
14.737885166903409,0.699989619983744,0.0007474846682656393,-4.024965525486508,215.08593006645407,1222.526,0.4205346763182216,1.4285015661414302,0.0,0.0,0,0.0,0.0,2.341532738815115,1.930199506233692,3.552713678800438e-14,3.552713678800438e-14,-0.5812440307293225,0.8090378893029121,0.011073873985735637,0.0643545347872414,-0.03942158786604927,0.013871086349857559,0.0,-9.996448114224198e-11,0.0,-9.996448114224198e-11,-59.3194797153652,0.9999976220804648,40.0,76.16561472672048,84.1091914067753,935.546875,,1.187608363418994,3,071614_m_20-PA3-069,PA3,1
14.572481946022727,0.5685105452435357,0.0006507036289060652,12.499053996785511,220.1661260908028,1260.263,1.3063724222024506,3.361491116831378,0.0,0.0,0,0.0,0.0,2.247307077369444,1.901659856747555,3.552713678800438e-14,3.552713678800438e-14,-0.6895752951919236,0.821266551742931,0.06268946977493502,0.05114199184159353,-0.019856970780636956,0.014954436724994382,0.0,-9.996448114224198e-11,0.0,-9.996448114224198e-11,182.14223871052008,0.9999992345220877,40.0,88.91546593820343,128.63222531562002,964.84375,,1.429825504969512,3,071614_m_20-PA3-073,PA3,1
14.0905554296875,0.32927069827434374,0.0003771271840801635,18.302347271637075,201.52940643459672,1203.702,0.6073370795837214,1.7073220185373394,0.0,0.0,0,0.0,0.0,2.4616211094424396,1.8332845190092268,3.552713678800438e-14,3.552713678800438e-14,-0.6981950592812889,0.927648480994995,-0.030035570093940922,0.05916020187638941,-0.008585000727931806,0.011073432279774977,0.0,-9.996448114224198e-11,0.0,-9.996448114224198e-11,257.89023872439196,0.9999983534706062,75.0,99.08460625124137,93.93123486866241,958.49609375,,1.5828701104080245,3,071614_m_20-PA3-075,PA3,1
14.38755671875,0.5766120691560372,0.0006157667980222529,8.509024342389916,218.75227145828418,1221.19,1.1774407826139224,2.4435090376428037,0.0,0.0,0,0.0,0.0,2.383498900841066,1.8965739187699078,3.552713678800438e-14,3.552713678800438e-14,-0.5646947678869315,0.7205780876499437,0.08552765215075897,0.05757794535590136,0.006491710232986558,0.010184509690656245,0.0,-9.996448114224198e-11,0.0,-9.996448114224198e-11,122.42407034735933,0.9999991507011092,40.0,114.12418735377771,139.79927932924605,866.40625,,1.6479651314300146,3,071614_m_20-PA3-077,PA3,1
14.022108519176136,0.6079335022840361,0.000670130899767013,-10.224708709282664,208.3987850648303,1170.712,1.2526940040984258,2.7684757119665235,0.0,0.0,0,0.0,0.0,2.169509721329374,1.9228437727572738,3.552713678800438e-14,3.552713678800438e-14,-0.6137802872104139,0.745636170299572,0.03704518526753389,0.02529410029593146,0.04401142436493974,0.009681424819341429,0.0,-9.996448114224198e-11,0.0,-9.996448114224198e-11,-143.3719750985269,0.999999201721092,20.0,37.59448545882843,41.6066054748597,867.96875,,0.5438473019357418,3,071614_m_20-PA3-080,PA3,1
4.182953897372159,0.36769927487592496,0.00044969316972627625,-8.754725139655537,231.81162438512877,1418.053,0.6268246551737827,2.228600083758553,0.0,0.0,0,0.0,0.0,2.95841198648431,1.7042096068040677,3.552713678800438e-14,3.552713678800438e-14,-0.8310545409747185,1.1831536779943723,-0.024398266918962463,0.030507919599363494,0.023324711816655942,0.014092942809745062,0.0,-9.996448114224198e-11,0.0,-9.996448114224198e-11,-36.62061164334415,0.999998404660065,14.285714285714285,61.93798417339348,64.33182127611217,680.2455357142857,,0.7022172801558468,4,071709_w_23-PA2-001,PA2,0
3.7532321029829543,0.04390290470938355,-8.753277105518628e-06,-16.152568555056817,247.4694152302736,1484.899,0.7518832040122316,2.55849267219401,0.0,0.0,0,0.0,0.0,2.9457570122515455,1.7446018823596958,3.552713678800438e-14,3.552713678800438e-14,0.6069533799328296,0.9371289862557686,0.08044738624022751,0.04333029915104382,0.03366813571554988,0.015236123463862493,0.0,-9.996448114224198e-11,0.0,-9.996448114224198e-11,-60.624338846472234,0.9999986700079684,0.0,14.641925635930713,21.422139973744162,758.7890625,,0.18516888167700643,4,071709_w_23-PA2-003,PA2,0
3.8580515291193183,0.1828495995037711,0.00020173397397739283,-17.586860241846583,241.7747543076137,1437.384,0.6620760050198915,2.3054836425068523,0.0,0.0,0,0.0,0.0,2.6614473217734798,1.809050620504236,3.552713678800438e-14,3.552713678800438e-14,-0.4358408089913151,0.7228281339426147,0.12425913132713957,0.036349204073062455,-0.010765581142141042,0.01803921171131563,0.0,-9.996448114224198e-11,0.0,-9.996448114224198e-11,-67.85101304846395,0.999998489601674,0.0,11.848242881330547,21.454761788130313,741.5364583333334,,0.14643173278264596,4,071709_w_23-PA2-004,PA2,0
3.1701110621448865,0.0449291430085055,1.7316168894022067e-05,1.2728967533842335,239.74944693828607,1500.414,0.6245207741886667,2.461243877965547,0.0,0.0,0,0.0,0.0,2.135621195372795,1.7193784452276697,3.552713678800438e-14,3.552713678800438e-14,0.003746589713333137,0.5842364755871768,0.06315855280634097,0.041029225202062154,0.03712596860258162,0.011634806686954132,0.0,-9.996448114224198e-11,0.0,-9.996448114224198e-11,4.03522407887167,0.9999983987748045,0.0,14.693939745159398,13.72293293528589,780.9244791666666,,0.1912476184623163,4,071709_w_23-PA2-008,PA2,0
3.202273970525568,0.04826085102758185,-3.242710429526996e-05,-2.967273829083811,251.21233004025459,1502.658,0.6906776265231588,2.425356666949502,0.0,0.0,0,0.0,0.0,2.8304059166948266,1.7541838128733753,3.552713678800438e-14,3.552713678800438e-14,0.7554594764226873,0.9984807225409154,0.028634951121362287,0.02845207369579794,0.026537682860347918,0.009353067521705267,0.0,-9.996448114224198e-11,0.0,-9.996448114224198e-11,-9.502023746296821,0.9999985521486237,0.0,19.555648822754673,26.33461529794246,739.453125,,0.2410080912454996,4,071709_w_23-PA2-010,PA2,0
3.3903019758522728,0.04270024605305693,-3.14297076811217e-05,-2.8789687779048294,233.53758238679143,1443.355,0.7488206827303315,2.629420830401835,0.0,0.0,0,0.0,0.0,2.90460649013656,1.6968089137263171,3.552713678800438e-14,3.552713678800438e-14,0.7921163824997146,1.0754056067792348,0.15366314015866858,0.04882266645475755,0.061686237129720496,0.011640077029479657,0.0,-9.996448114224198e-11,0.0,-9.996448114224198e-11,-9.760573536147746,0.9999986645685841,0.0,8.99286283845417,11.960399134683486,758.7890625,,0.11372809808464925,4,071709_w_23-PA2-012,PA2,0
3.926190828125,0.0771826211019363,3.195313998168371e-05,1.2347923120561084,244.94946972022652,1520.739,0.712835649404573,2.4232001439677378,0.0,0.0,0,0.0,0.0,2.7191840934376192,1.7484825865575466,3.552713678800438e-14,3.552713678800438e-14,0.1888583599510287,0.8496156356733584,0.0556710792829646,0.03526540839807581,-0.037894525624509436,0.010660407551568083,0.0,-9.996448114224198e-11,0.0,-9.996448114224198e-11,4.848030250233956,0.9999985971540593,0.0,12.480657234818239,13.287813504230645,688.6160714285714,,0.14323968446217702,4,071709_w_23-PA2-014,PA2,0
4.37622010546875,0.07363102699311593,5.144702178946788e-05,11.436542925632102,268.1637565586018,1623.346,0.8576538556513943,2.581302052044105,0.0,0.0,0,0.0,0.0,2.2843047998529715,1.858288164785379,3.552713678800438e-14,3.552713678800438e-14,-0.07540681372576474,0.6760090258202314,0.032537006114392926,0.03372299634667219,0.013780827633341122,0.010150004609449712,0.0,-9.996448114224198e-11,0.0,-9.996448114224198e-11,50.048829088207604,0.9999988340298042,14.285714285714285,57.0544330734548,60.993754559283325,670.4799107142857,,0.6375641803754104,4,071709_w_23-PA2-028,PA2,0
4.292330182173296,0.145192499542926,0.00012661219796079404,-21.248090234943167,300.5515639492426,1715.959,1.162846509712326,2.7076591952661855,0.0,0.0,0,0.0,0.0,2.513107715517954,2.023281577042866,3.552713678800438e-14,3.552713678800438e-14,-0.22448994762777577,0.7837455659367328,0.11290840666017181,0.05041246842268807,0.027151525296433516,0.01380693367166255,0.0,-9.996448114224198e-11,0.0,-9.996448114224198e-11,-91.20381902898824,0.9999991400420162,0.0,15.354096880494957,17.617865956078624,710.6119791666666,,0.18184675097828135,4,071709_w_23-PA2-029,PA2,0
4.1210221878551145,0.013962479597242635,-1.1357511707487652e-06,-30.29041451688921,241.957371495167,1503.829,0.7489698111475178,2.391197329655644,0.0,0.0,0,0.0,0.0,2.533250893697146,1.7439280081397455,3.552713678800438e-14,3.552713678800438e-14,0.44084375840899526,0.8507833885604835,0.055629754056518516,0.04812071096001354,0.012289025194628591,0.013687121747954478,0.0,-9.996448114224198e-11,0.0,-9.996448114224198e-11,-124.8274703034291,0.9999986648344833,0.0,11.253797102256199,13.169721675510713,756.5104166666666,,0.14189357731366317,4,071709_w_23-PA2-037,PA2,0
3.676372100142046,0.10245593600110656,0.00012497821265242736,18.014064436505684,254.77373273157002,1604.217,1.1483893989126537,3.013292275482522,0.0,0.0,0,0.0,0.0,2.797364092986528,1.5992150865605228,3.552713678800438e-14,3.552713678800438e-14,-0.7565010419668359,1.0397841906068868,-0.04889075261468555,0.019191864199124057,-0.029927164076217518,0.01200254493522074,0.0,-9.996448114224198e-11,0.0,-9.996448114224198e-11,66.22640390453054,0.9999991292159871,0.0,13.014321288248189,15.645331823825408,736.6536458333334,,0.15978411867238598,4,071709_w_23-PA2-042,PA2,0
3.8698263178267043,0.04121815366162002,1.7193928879008142e-06,-4.041743082091622,246.4842583127727,1563.612,0.6070909152992343,2.156580018916517,0.0,0.0,0,0.0,0.0,2.4845135858023353,1.7323031910417426,3.552713678800438e-14,3.552713678800438e-14,0.2673043056215032,0.8356573941619165,0.026825416446063205,0.037342355339684705,0.004303810266196993,0.009119781135013688,0.0,-9.996448114224198e-11,0.0,-9.996448114224198e-11,-15.640843748972175,0.9999983528029697,0.0,13.727565149066859,16.453460100655246,751.6276041666666,,0.1719669464751236,4,071709_w_23-PA2-044,PA2,0
3.9487257585227273,0.06746710507683046,4.472988669391373e-05,1.6751058668749967,239.4403860684096,1536.16,0.551386925895197,1.8753890100845585,0.0,0.0,0,0.0,0.0,2.5707479189298352,1.689778372916783,3.552713678800438e-14,3.552713678800438e-14,-0.057989456698425576,0.8400847189361016,0.09292940257082388,0.024811630608824263,0.05261955592192556,0.009419592870906922,0.0,-9.996448114224198e-11,0.0,-9.996448114224198e-11,6.614533684781843,0.9999981863948174,16.666666666666664,66.98393034025493,73.82364679980877,725.2604166666666,,0.809679878471657,4,071709_w_23-PA2-045,PA2,0
3.8583211615767046,0.023943948959178788,-2.6651014571043322e-05,1.3701376592542571,265.3833697137772,1594.93,1.5900365263793452,3.6503722676266266,0.0,0.0,0,0.0,0.0,2.7954383536336174,1.8397785223617893,3.552713678800438e-14,3.552713678800438e-14,0.8727425515840528,1.1472410482346882,-0.00651741942858448,0.037201959801510656,0.0008765262764791424,0.009298788540369982,0.0,-9.996448114224198e-11,0.0,-9.996448114224198e-11,5.2864311249738725,0.9999993710840258,0.0,8.286407592029853,12.378355040254911,737.9557291666666,,0.10191669816374982,4,071709_w_23-PA2-052,PA2,0
3.8149617226562498,0.018742957561517323,-1.018674005572678e-05,13.57896211846591,255.8454554018897,1582.875,0.8356780329008302,2.368723607780891,0.0,0.0,0,0.0,0.0,2.3038382862631477,1.7004949595685246,3.552713678800438e-14,3.552713678800438e-14,0.5435751669093342,0.779314627223492,0.10467305663037417,0.03978458040349446,0.05428703542192559,0.019314714924460383,0.0,-9.996448114224198e-11,0.0,-9.996448114224198e-11,51.80322071534667,0.999998803368326,0.0,5.8048680013434275,7.13180413418185,685.546875,,0.06632515130740584,4,071709_w_23-PA2-058,PA2,0
4.0012464179687495,0.021368146483665584,-2.0818448613170608e-05,2.0619896326349423,245.4822199370764,1587.029,0.7609402132412963,2.5883134257135594,0.0,0.0,0,0.0,0.0,2.559500724400172,1.725450422883362,3.552713678800438e-14,3.552713678800438e-14,0.5608164769878402,0.7426593403270768,-0.03266216640425639,0.030362516786668774,-0.04396603706659277,0.014294831321510852,0.0,-9.996448114224198e-11,0.0,-9.996448114224198e-11,8.25052863146926,0.999998685838035,0.0,11.11738239902946,9.759112411746479,737.9557291666666,,0.13673559908188357,4,071709_w_23-PA2-060,PA2,0
3.9830474829545452,0.11159707121481026,8.898175824219972e-05,-5.295362443451703,266.7315223571736,1635.3,1.1988676038648653,2.686663217013854,0.0,0.0,0,0.0,0.0,1.7298237035388322,1.7314702707887775,3.552713678800438e-14,3.552713678800438e-14,-0.2865629473677834,0.2528346446471013,-0.044260816453946285,0.025844228092988746,0.0029965513794447743,0.008544439555535797,0.0,-9.996448114224198e-11,0.0,-9.996448114224198e-11,-21.091680051722335,0.9999991658802335,0.0,14.03897047711447,20.131223793152024,703.6830357142857,,0.1646497543636146,4,071709_w_23-PA2-061,PA2,0
4.5277177887073865,0.05741965016339632,6.660999896535921e-06,11.7805219331321,253.76212001130273,1660.781,2.2910722734158435,8.360830682786279,0.0,0.0,0,0.0,0.0,2.6442157612723896,1.681817268838073,3.552713678800438e-14,3.552713678800438e-14,0.24656452920638966,0.9312746941353519,-0.07886393079895554,0.04047389713914202,-0.041006542587996284,0.011172338223654769,0.0,-9.996448114224198e-11,0.0,-9.996448114224198e-11,53.338878716899735,0.9999995635233444,0.0,13.10196080566283,7.788047670850346,776.3671875,,0.1695322057151734,4,071709_w_23-PA2-065,PA2,0
4.477278389204545,0.05719548237304632,-7.000610146000815e-05,-15.042193278757106,244.16551061990626,1597.119,1.2847028709315234,2.924806424058489,0.0,0.0,0,0.0,0.0,2.9533129747386786,1.6837358732052612,3.552713678800438e-14,3.552713678800438e-14,0.8329161443622277,1.232377977154408,-0.029516339544472407,0.02598734111849556,-0.033168475709970606,0.015534083018941158,0.0,-9.996448114224198e-11,0.0,-9.996448114224198e-11,-67.34808689321704,0.999999221610503,0.0,20.353774172051605,25.00203442243084,756.5104166666666,,0.25663070009746625,4,071709_w_23-PA2-067,PA2,0
4.726415996448864,0.28648990602761865,0.00032378599907299674,17.284353368678982,256.6642935228509,1665.482,1.363274696760867,3.268125010000434,0.0,0.0,0,0.0,0.0,2.3357720649883515,1.7393219561400508,3.552713678800438e-14,3.552713678800438e-14,-0.49771046663016516,0.5819070157554326,0.04052467010481518,0.024433501747983904,-0.08125331516180549,0.01274452251850185,0.0,-9.996448114224198e-11,0.0,-9.996448114224198e-11,81.69304424999915,0.9999992664726568,16.666666666666664,69.98077128475632,70.37125005042084,746.4192708333334,,0.8705832615813789,4,071709_w_23-PA2-074,PA2,0
4.157453793678977,0.12426703153693876,8.846609446388721e-05,-25.68001873414985,262.85273440910004,1525.252,0.757808882486279,2.504221647867428,0.0,0.0,0,0.0,0.0,2.5756747023941537,1.9301207269187732,3.552713678800438e-14,3.552713678800438e-14,-0.028823344455981614,0.8545771644363191,0.1437788777130319,0.07388554041414576,-0.027428366779544435,0.007882393953816307,0.0,-9.996448114224198e-11,0.0,-9.996448114224198e-11,-106.7634913080385,0.9999986804078131,0.0,6.7658234670659265,7.949642635606595,710.6119791666666,,0.08013125257412654,4,071709_w_23-PA3-002,PA3,1
3.7864549303977273,0.15802108010295862,0.0001543279977231556,15.668786278767755,250.500448153943,1555.08,0.5909859415920399,2.1622438899570744,0.0,0.0,0,0.0,0.0,2.6177153420472705,1.8874533204434496,3.552713678800438e-14,3.552713678800438e-14,-0.2837252931606604,0.7240009368053768,0.11941815667118541,0.056140650134290176,-0.01795628121486676,0.011596525562948889,0.0,-9.996448114224198e-11,0.0,-9.996448114224198e-11,59.329153058588425,0.9999983079152353,0.0,6.6233691241457695,5.093126879064569,739.0625,,0.08158472816068565,4,071709_w_23-PA3-005,PA3,1
3.328503100497159,0.19865370574922775,0.00020919456209453558,-7.827497662911932,239.71409529837348,1518.512,0.6497638452003922,2.394464292428344,0.0,0.0,0,0.0,0.0,2.290576954164977,1.7161736489121937,3.552713678800438e-14,3.552713678800438e-14,-0.3913800867996554,0.47748615303133113,0.14576318636623514,0.06702497810683916,0.06404966294546852,0.014156978905131248,0.0,-9.996448114224198e-11,0.0,-9.996448114224198e-11,-26.05385024013663,0.9999984609816807,14.285714285714285,56.93172323077918,43.17329898078988,733.5379464285714,,0.6960263148619261,4,071709_w_23-PA3-009,PA3,1
3.2138087400568183,0.14628469157604457,0.00012140247902457439,-15.299800502072088,255.01330606145498,1517.984,0.7616320550741047,2.5402113053162148,0.0,0.0,0,0.0,0.0,2.1438198562505852,1.8456469601965464,3.552713678800438e-14,3.552713678800438e-14,-0.2181246732677879,0.5225251120763001,0.02157970873265929,0.03478188589951824,-0.04563431508072349,0.011969659309419173,0.0,-9.996448114224198e-11,0.0,-9.996448114224198e-11,-49.17063257468497,0.9999986870317755,0.0,6.87766283658555,4.352738190220515,736.6536458333334,,0.08444092246761867,4,071709_w_23-PA3-011,PA3,1
3.389602868963068,0.07834450584550046,7.179901999177319e-05,-23.969988161008526,230.714552985754,1442.43,0.6786841813799086,2.5376023998660755,0.0,0.0,0,0.0,0.0,2.4629667999733136,1.6599825096055587,3.552713678800438e-14,3.552713678800438e-14,-0.2295213441598682,0.5828141973121211,0.0775407813688505,0.025329424678628542,0.07093500736089238,0.014059533597629627,0.0,-9.996448114224198e-11,0.0,-9.996448114224198e-11,-81.24874063956528,0.9999985265627901,14.285714285714285,61.860950043621855,63.27700143733343,727.3995535714286,,0.7499604493595838,4,071709_w_23-PA3-013,PA3,1
3.658220684659091,0.14084291383795045,0.0001460266811709391,-28.399919901438217,246.47726322881002,1496.324,0.6883145050420733,2.37813755768273,0.0,0.0,0,0.0,0.0,2.4431388589010687,1.7931067036020383,3.552713678800438e-14,3.552713678800438e-14,-0.3565070150743381,0.5929293004449342,0.055637371454724506,0.04615561141257262,0.024116609432898478,0.012440715926341463,0.0,-9.996448114224198e-11,0.0,-9.996448114224198e-11,-103.89317442610265,0.9999985471778673,0.0,14.615849167085708,20.546528434973307,735.6770833333334,,0.17920908614095626,4,071709_w_23-PA3-019,PA3,1
4.096125240767045,0.11685715644962029,7.344511127263691e-05,-22.194108354506387,262.14274824662385,1543.177,0.8839657701943099,2.7641599912539916,0.0,0.0,0,0.0,0.0,2.5798404800257253,1.8535019266964057,3.552713678800438e-14,3.552713678800438e-14,-0.029143240793330152,0.8670546169072286,0.02291327245120863,0.020285459364275206,0.025471629751305506,0.015726849797602017,0.0,-9.996448114224198e-11,0.0,-9.996448114224198e-11,-90.90984742721237,0.9999988687357559,0.0,6.709204702077214,8.624766471023287,725.5859375,,0.08113507552458064,4,071709_w_23-PA3-021,PA3,1
3.9238229815340913,0.05715996042887437,1.9694285712108596e-05,-23.91216327276278,265.70700330267357,1669.875,0.8951158741175931,2.639663460126643,0.0,0.0,0,0.0,0.0,2.275953272441485,1.8699362751978021,3.552713678800438e-14,3.552713678800438e-14,0.2000714360615312,0.8105374776171159,0.07453523379134623,0.03958651461522899,0.00395141790092185,0.009031691966101579,0.0,-9.996448114224198e-11,0.0,-9.996448114224198e-11,-93.82709578786204,0.9999988828274509,0.0,11.30452822538108,19.259644233976523,704.5200892857143,,0.1327377858744408,4,071709_w_23-PA3-023,PA3,1
3.8464149950284097,0.05850965925858203,1.7689652273572614e-05,-50.28515708441761,258.0230898129283,1603.0,0.9487506885313013,2.6877977868582614,0.0,0.0,0,0.0,0.0,2.3507474808734843,1.7542756454057993,3.552713678800438e-14,3.552713678800438e-14,0.18700950914694353,0.7158691708406398,0.18502819592952177,0.047827895594362645,0.11572264092272642,0.025515203065394336,0.0,-9.996448114224198e-11,0.0,-9.996448114224198e-11,-193.41758223686296,0.9999989459834305,0.0,9.66747552403483,11.491787776100054,721.8191964285714,,0.11630282233282616,4,071709_w_23-PA3-025,PA3,1
3.9972977066761364,0.14862303074954294,0.000129506864871743,-59.01993194513495,272.5302508360232,1657.882,0.8956205704432036,2.7194905551988287,0.0,0.0,0,0.0,0.0,2.232311749214097,1.8306230659487486,3.552713678800438e-14,3.552713678800438e-14,-0.2182397244803702,0.5661522993794428,0.06573783233931407,0.02668335359704909,0.035226011669808335,0.010462644576149059,0.0,-9.996448114224198e-11,0.0,-9.996448114224198e-11,-235.92023861246957,0.9999988834569945,0.0,16.105881350068987,21.466611975053258,712.890625,,0.19136219502520152,4,071709_w_23-PA3-026,PA3,1
4.655015201349432,0.15145690699187592,0.00014031251750335104,-2.157477198863634,339.1319668164416,1779.835,1.0225811409151362,3.0568861591858525,0.0,0.0,0,0.0,0.0,2.4686243860329284,2.1017648011934953,3.552713678800438e-14,3.552713678800438e-14,-0.2616010412514765,0.76966107146941,0.15059740794746948,0.07765544098840618,-0.04354808782363094,0.013202741070480566,0.0,-9.996448114224198e-11,0.0,-9.996448114224198e-11,-10.043089157275007,0.9999990220834495,0.0,12.008145428858905,13.155230871552735,732.7473958333334,,0.1466489532722636,4,071709_w_23-PA3-032,PA3,1
4.151942201349431,0.05678653430155629,2.314055257618636e-05,-6.713143360486501,251.75669302184122,1541.496,0.8366894608234269,2.4746628749649173,0.0,0.0,0,0.0,0.0,2.5137976884983955,1.7866450973916679,3.552713678800438e-14,3.552713678800438e-14,0.11583718431804277,0.7920628482700087,0.125602660234301,0.03609653905476032,0.04490621138233658,0.010343709720708553,0.0,-9.996448114224198e-11,0.0,-9.996448114224198e-11,-27.87258322211264,0.9999988048148666,0.0,6.812646333481885,5.6058754337498655,679.1294642857143,,0.07711114682116305,4,071709_w_23-PA3-034,PA3,1
3.964694500355114,0.05184027767909699,2.694177179288642e-05,-4.1036821421732945,240.21964799461463,1501.621,0.9361013961180017,2.558873105282046,0.0,0.0,0,0.0,0.0,2.5717175526723137,1.7118026828017978,3.552713678800438e-14,3.552713678800438e-14,0.03699695059498509,0.8542961806230583,0.11480885078032263,0.05648020382000624,0.04278588528048462,0.012696236644143745,0.0,-9.996448114224198e-11,0.0,-9.996448114224198e-11,-16.269846020279953,0.9999989317407966,0.0,14.192111034831992,12.682786288267028,740.5598958333334,,0.1751684692346608,4,071709_w_23-PA3-035,PA3,1
3.8641530198863636,0.023895675027149888,-1.1488527211080908e-05,4.42806631253125,243.49357337590797,1551.37,6.603657725039384,17.28453876393374,0.0,0.0,0,0.0,0.0,2.9424531805790726,1.7308711919483377,3.552713678800438e-14,3.552713678800438e-14,0.6959602189770324,0.9593765508960418,0.04988701256449055,0.03594800091150755,0.03003128075277789,0.009067462604872503,0.0,-9.996448114224198e-11,0.0,-9.996448114224198e-11,17.110725813824704,0.9999998485687946,0.0,14.029910153178102,16.846764572537364,730.46875,,0.1708068470244194,4,071709_w_23-PA3-048,PA3,1
4.0419274318181815,0.1593389014488593,0.0001882287145519025,-17.111266927148442,267.2314415051091,1622.756,2.8431089222307877,6.191682670371684,0.0,0.0,0,0.0,0.0,2.523929163669455,1.7601383408189046,3.552713678800438e-14,3.552713678800438e-14,-0.5940126922096605,0.7409865852215158,0.12199395101214375,0.03149421567223654,0.06793097498937088,0.015393137940716992,0.0,-9.996448114224198e-11,0.0,-9.996448114224198e-11,-69.16249918600448,0.9999996482724807,0.0,24.705294220065465,27.22257376030813,740.8854166666666,,0.30506320001323683,4,071709_w_23-PA3-051,PA3,1
3.5905200681818186,0.01377995945221118,8.009994566851345e-06,7.5542684620454565,268.6826764995528,1631.639,1.3629743195724802,3.3168333025091092,0.0,0.0,0,0.0,0.0,2.2160742940744793,1.764725163357174,3.552713678800438e-14,3.552713678800438e-14,-0.1325207719001468,0.5436000477018478,-0.022742198016828627,0.020841304365150526,-0.10951012972774005,0.01630756937082492,0.0,-9.996448114224198e-11,0.0,-9.996448114224198e-11,27.123752513407215,0.9999992663109996,0.0,11.554843326366438,6.987712429686843,695.3125,,0.1339037819802339,4,071709_w_23-PA3-054,PA3,1
4.317327966619318,0.02985702805999941,-2.5242577943965075e-05,-1.655036567599433,262.5367794827327,1631.4,3.139164453441279,6.552631982384456,0.0,0.0,0,0.0,0.0,2.584137977542839,1.6689500761698415,3.552713678800438e-14,3.552713678800438e-14,0.48970770718843093,0.6835052764286403,-0.03796320055786553,0.033860102139827306,-0.07884949562415051,0.010542024571248088,0.0,-9.996448114224198e-11,0.0,-9.996448114224198e-11,-7.145335659074675,0.9999996814439969,0.0,15.891285630318745,26.36115864717168,736.6536458333334,,0.19510622281197898,4,071709_w_23-PA3-064,PA3,1
4.369134039772728,0.19122446505051136,0.00017123613120885244,9.863970162826705,257.1545042412403,1583.411,1.4282206946372413,3.03902576102922,0.0,0.0,0,0.0,0.0,1.8487459603935887,1.7778920868995511,3.552713678800438e-14,3.552713678800438e-14,-0.28702570984889964,0.3262656663013199,0.00722095992785424,0.0247028634241356,0.02846268613170364,0.01167399049448735,0.0,-9.996448114224198e-11,0.0,-9.996448114224198e-11,43.0970078057087,0.9999992998285885,0.0,3.2682032286487326,2.1395412402545553,707.03125,,0.03851202983407573,4,071709_w_23-PA3-070,PA3,1
4.156916872514205,0.033303145427376245,-3.8705424140953034e-05,-8.163169188227982,253.72224074112515,1598.983,0.9306284300715646,2.5550390669235714,0.0,0.0,0,0.0,0.0,2.9412349623535143,1.7078310425626388,3.552713678800438e-14,3.552713678800438e-14,0.8365609816746187,1.202000380896061,-0.01636474041636514,0.03885710265877647,0.02072156334159672,0.014908737548380424,0.0,-9.996448114224198e-11,0.0,-9.996448114224198e-11,-33.933615731732985,0.9999989254584395,0.0,18.75406856899657,25.032530918120656,785.8072916666666,,0.24561806092799593,4,071709_w_23-PA3-073,PA3,1
4.333700582386364,0.027158139841939096,-2.9816733036600645e-05,18.057362618512784,251.93008762703712,1648.133,1.4252371539697075,3.3356421299423062,0.0,0.0,0,0.0,0.0,2.349211109497108,1.6853511719254677,3.552713678800438e-14,3.552713678800438e-14,0.7819791531171945,0.8955735747405636,0.01283545858120723,0.04090374490945807,-0.049132236032874685,0.012044773416939807,0.0,-9.996448114224198e-11,0.0,-9.996448114224198e-11,78.25520289621062,0.9999992983628756,0.0,15.428451295415234,19.24265958532413,751.3020833333334,,0.19319045785227315,4,071709_w_23-PA3-078,PA3,1
6.152740692471591,0.004280689574454231,3.921216565367913e-06,-29.058085181203833,336.96560383188177,1890.239,0.5315172978516148,1.3602674655466824,0.0,0.0,0,0.0,0.0,2.747484075650686,2.0231843344939975,3.552713678800438e-14,3.552713678800438e-14,0.9568257552130826,1.2143031136270361,-0.0456259474623301,0.19052081636180057,0.002180857655905183,0.006884756203580058,0.0,-9.996448114224198e-11,0.0,-9.996448114224198e-11,-178.78686313969854,0.999998118597226,50.0,79.6163004020756,100.02975021329591,889.6484375,,1.1805086046935973,5,071814_w_23-PA2-021,PA2,0
6.592115475142045,0.021353151727547547,1.3837636655784686e-05,-13.112169517862185,427.69559883008094,2001.68,0.3732276585747732,0.9895429910912776,0.0,0.0,0,0.0,0.0,2.763351338623078,2.2791723385498215,3.552713678800438e-14,3.552713678800438e-14,0.8356585049710136,1.2072968404233406,-0.6236682251606178,0.555703719569621,-0.01818939055011711,0.015383684086856527,0.0,-9.996448114224198e-11,0.0,-9.996448114224198e-11,-86.43693559138512,0.9999973206773461,40.0,48.445768573486184,43.660098758853174,797.265625,,0.6437357582593867,5,071814_w_23-PA2-024,PA2,0
6.472660904829545,0.01897690440316172,-2.296805940087739e-05,47.570962088849434,327.63131891392396,1976.446,0.29065799907335316,0.934904279709784,0.0,0.0,0,0.0,0.0,2.853227002554367,2.031476346625417,3.552713678800438e-14,3.552713678800438e-14,-0.9169445538530534,1.3756455661800646,0.35390292536219303,0.1918148533966659,-0.014305438136725503,0.004847096192563098,0.0,-9.996448114224198e-11,0.0,-9.996448114224198e-11,307.91070651762413,0.9999965595422706,0.0,33.857296529999445,31.962101428635368,856.640625,,0.48339225466721514,5,071814_w_23-PA2-028,PA2,0
6.538037933948865,0.009913355560415867,-1.2166979422080202e-05,101.53748876363635,451.84951036598574,2318.69,0.1908097634394518,0.7421656675149817,0.0,0.0,0,0.0,0.0,2.953537424917401,2.289942780650238,3.552713678800438e-14,3.552713678800438e-14,-0.8691156344053351,1.3298218677197409,-0.48933814770437184,0.4340341675048642,0.16167944381549032,0.015931053219417908,0.0,-9.996448114224198e-11,0.0,-9.996448114224198e-11,663.8559532545611,0.9999947592054977,0.0,18.280248369996237,19.79316571899724,790.0390625,,0.2407018352102563,5,071814_w_23-PA2-035,PA2,0
6.484081412286932,0.0014833550613541956,-1.5746048571564384e-06,-48.77079698764202,455.95594367166285,2129.834,0.1801083618406522,0.6877638195703335,0.0,0.0,0,0.0,0.0,2.6012674342833733,2.1803587686852817,3.552713678800438e-14,3.552713678800438e-14,-0.6832809095311445,0.5814534608404709,0.5457852092292239,0.365540472739846,-0.02172424269162553,0.005205636819764645,0.0,-9.996448114224198e-11,0.0,-9.996448114224198e-11,-316.2338182099891,0.9999944478177604,50.0,49.05416429984564,55.74338737467077,775.0651041666666,,0.6336695086797947,5,071814_w_23-PA2-037,PA2,0
6.427502518821024,0.008863917747163547,-1.0817736436002419e-05,-115.12988022915484,434.89545814532994,1963.4,0.18382763481175263,0.7842195266740358,0.0,0.0,0,0.0,0.0,2.8946146961843593,2.283896322714486,3.552713678800438e-14,3.552713678800438e-14,-0.8414870678973796,1.301283703917339,0.6371414818185002,0.5050237020816968,-0.003440754727494828,0.005877651821476055,0.0,-9.996448114224198e-11,0.0,-9.996448114224198e-11,-739.9975951644556,0.999994560151083,16.666666666666664,65.66683934119641,64.21792629236533,762.3697916666666,,0.8343735676253669,5,071814_w_23-PA2-040,PA2,0
6.32755350674716,0.002777805237239307,-2.847195774499944e-06,95.04021263068184,532.0779174634798,2265.223,0.408613161243198,1.1390534684789975,0.0,0.0,0,0.0,0.0,2.4279389748711555,2.3953261275038362,3.552713678800438e-14,3.552713678800438e-14,-0.5033006254789071,0.5590301076467632,0.36002538175091864,0.35888332074665036,-0.04560337480504948,0.01976059943638766,0.0,-9.996448114224198e-11,0.0,-9.996448114224198e-11,601.3720307132666,0.9999975527035163,33.33333333333333,40.81049896989591,72.94078609644393,836.9140625,,0.5692480008324415,5,071814_w_23-PA2-045,PA2,0
6.419292811079546,0.01272766185681565,-3.6721639058509805e-06,-89.56790196315697,440.20978072539316,1925.831,0.37631911728755374,1.1616163358982006,0.0,0.0,0,0.0,0.0,2.6252054777883997,2.248886162865053,3.552713678800438e-14,3.552713678800438e-14,0.008093699159534423,0.9846588272592491,0.21014875402718142,0.21082336525826395,-0.021100776979472432,0.007579186123671949,0.0,-9.996448114224198e-11,0.0,-9.996448114224198e-11,-574.9625891755711,0.9999973426879031,0.0,17.1107572929055,20.363142998403696,814.0625,,0.23215376144798286,5,071814_w_23-PA2-046,PA2,0
6.371163280539773,0.0038070987454197833,-4.160740958602818e-06,7.951216612784105,350.84055320428354,1847.629,0.23529481990321652,0.6905611367169326,0.0,0.0,0,0.0,0.0,2.607828647087583,1.977228975182861,3.552713678800438e-14,3.552713678800438e-14,-0.8585583831651615,1.0351320712104422,0.25271118943520876,0.3000886791276927,-0.005175150587904727,0.004623364461454239,0.0,-9.996448114224198e-11,0.0,-9.996448114224198e-11,50.65849931898792,0.9999957500307468,20.0,57.550941789678006,54.08075807119097,902.734375,,0.8658868790508576,5,071814_w_23-PA2-047,PA2,0
6.262996803977273,0.006460032874967897,-7.694186232968065e-06,-38.31888326297585,437.5916565146535,2079.398,0.31714938700548445,0.9382199494918607,0.0,0.0,0,0.0,0.0,2.806547038153697,2.370336680171584,3.552713678800438e-14,3.552713678800438e-14,-0.7370629024981297,1.0694949006900638,0.5624274174452424,0.3321728295559317,-0.09451238815994875,0.01749827357065087,0.0,-9.996448114224198e-11,0.0,-9.996448114224198e-11,-239.991043407996,0.9999968469217099,40.0,52.170743707785476,51.711727714350495,847.65625,,0.7370476066410044,5,071814_w_23-PA2-048,PA2,0
6.263817841974432,0.028450331418628256,-3.3950236726836266e-05,-22.891196682705928,553.9327738690313,2232.309,0.396332452015457,1.0365213655712031,0.0,0.0,0,0.0,0.0,2.90676000166587,2.4408037355302175,3.552713678800438e-14,3.552713678800438e-14,-0.8059073138231833,1.2007144195858386,0.6773059679758331,0.4557624453227205,0.039576848225803596,0.008302592401328066,0.0,-9.996448114224198e-11,0.0,-9.996448114224198e-11,-143.38628620527933,0.9999974768720761,40.0,51.23929539978479,43.06629552848579,858.984375,,0.7335625592590839,5,071814_w_23-PA2-049,PA2,0
6.0976043483664775,0.008087539451376774,-8.187911902175912e-06,126.9365853815696,409.85358636547016,2055.971,0.28213066718711605,0.9657777179253195,0.0,0.0,0,0.0,0.0,2.755160710882358,2.1314251836511224,3.552713678800438e-14,3.552713678800438e-14,-0.45859470150206916,0.9288662170142216,0.3222992283865963,0.3145495906316809,0.05223464174944224,0.0106113340401709,0.0,-9.996448114224198e-11,0.0,-9.996448114224198e-11,774.0090749894514,0.9999964555556278,20.0,31.94419381600806,30.552519059783556,838.28125,,0.4463036396690288,5,071814_w_23-PA2-050,PA2,0
5.634162773792613,0.015785268406562636,-1.9358720444990805e-05,40.706925126395575,478.1163593763233,2232.666,0.2706459574537379,0.8941456711302677,0.0,0.0,0,0.0,0.0,2.9574615596639298,2.247316266163501,3.552713678800438e-14,3.552713678800438e-14,-0.8339233002174731,1.3633804986889895,0.3390962344647772,0.202469390573133,0.020869150185065487,0.0036866944340475795,0.0,-9.996448114224198e-11,0.0,-9.996448114224198e-11,229.3494421827011,0.9999963051496703,20.0,130.3006671317552,133.41001848521933,844.140625,,1.8332014195556277,5,071814_w_23-PA2-057,PA2,0
6.223894014914774,0.07689342357570614,-9.379082476379901e-05,-11.515868567933238,290.10890790357826,1690.616,0.8193495186834538,1.7799530211467929,0.0,0.0,0,0.0,0.0,2.9437869815340454,1.725998984634033,3.552713678800438e-14,3.552713678800438e-14,-0.8004865584937451,1.3557918876220394,-0.14069052366551787,0.10166405670446073,0.016121205988852305,0.008665944381285526,0.0,-9.996448114224198e-11,0.0,-9.996448114224198e-11,-71.67354545650484,0.999998779521124,0.0,19.003280624122947,41.82042407919473,714.5647321428571,,0.22631789977160752,5,071814_w_23-PA2-062,PA2,0
5.566889447443182,0.008292047981362669,-9.939849476745859e-06,-47.43954868089486,575.5562587822602,2103.485,0.4073933510859803,1.2498155223131842,0.0,0.0,0,0.0,0.0,2.8565599220771025,2.3628462719368066,3.552713678800438e-14,3.552713678800438e-14,-0.7727840112790287,1.335740148963103,-0.40098211588303767,0.23793520762100548,0.047963107245571984,0.008846246380139857,0.0,-9.996448114224198e-11,0.0,-9.996448114224198e-11,-264.0907229431407,0.9999975453758814,16.666666666666664,46.46631739597781,70.11419518336453,807.6171875,,0.6254499351694021,5,071814_w_23-PA2-065,PA2,0
6.003055169744318,0.010350457020591272,3.131529771968774e-06,-80.10317038210229,354.13987006580857,2009.271,0.7301976375138014,1.6809037280815797,0.0,0.0,0,0.0,0.0,2.673995559638844,1.980913858870234,3.552713678800438e-14,3.552713678800438e-14,0.5132442236376439,1.1789466555968262,-0.2165822520841632,0.17782942725146467,-0.004691754613148009,0.011285291193200308,0.0,-9.996448114224198e-11,0.0,-9.996448114224198e-11,-480.8637510751891,0.9999986305096331,20.0,114.34541913837077,116.68512107577705,873.4375,,1.6645595948187895,5,071814_w_23-PA2-068,PA2,0
5.655330864701704,0.02686644301445755,-3.266958937635568e-05,-62.22362857883524,432.58591716739284,2018.827,0.30905901682560083,0.8604891614175179,0.0,0.0,0,0.0,0.0,2.9408034304058646,2.304635901465232,3.552713678800438e-14,3.552713678800438e-14,-0.7889575642960442,1.3857218298213383,0.5054287847617727,0.3373825745701129,-0.003364869236840635,0.005849734426405825,0.0,-9.996448114224198e-11,0.0,-9.996448114224198e-11,-351.89520721562195,0.9999967643824968,16.666666666666664,86.44205575937126,71.18330125759614,768.5546875,,1.1072574397742552,5,071814_w_23-PA2-071,PA2,0
5.426739400923296,0.03216744149694912,9.467863519937632e-06,136.8695488923295,309.7328498192109,2052.101,0.21387193147914793,0.6931648033414927,0.0,0.0,0,0.0,0.0,1.7170225527179506,1.9877480195408008,3.552713678800438e-14,3.552713678800438e-14,0.40027041111997913,0.44426563776127403,-0.21006492677373506,0.20347477046128776,-0.03343807257886083,0.011808316263161691,0.0,-9.996448114224198e-11,0.0,-9.996448114224198e-11,742.755373760602,0.9999953243264911,16.666666666666664,81.37760412499867,76.37359774353743,784.5052083333334,,1.0640192254066432,5,071814_w_23-PA2-072,PA2,0
5.6158672713068185,0.01609180533183313,-1.9593589458110466e-05,-111.70935522179333,656.5271064933423,2313.955,0.2981595657910535,0.8676572736912469,0.0,0.0,0,0.0,0.0,2.8999268623952594,2.459372778296551,3.552713678800438e-14,3.552713678800438e-14,-0.8072743937632639,1.3360740130044189,0.6918794243595765,0.52313114246496,0.023317706621187154,0.0062848335431596085,0.0,-9.996448114224198e-11,0.0,-9.996448114224198e-11,-627.3449118888566,0.9999966461024203,60.0,73.59938938053426,102.25127023966499,852.34375,,1.0455329787460106,5,071814_w_23-PA2-074,PA2,0
5.545906902698864,0.011733108275886927,-1.208758635464353e-05,-11.383774619247147,525.7632764818113,2086.208,0.3129479249327712,0.9611514236487281,0.0,0.0,0,0.0,0.0,2.8478635926426796,2.1945814036216906,3.552713678800438e-14,3.552713678800438e-14,-0.5223338668112829,1.0498271788959226,-0.649787955867327,0.4890351897275426,0.023701411531143947,0.008868787966581904,0.0,-9.996448114224198e-11,0.0,-9.996448114224198e-11,-63.13335423965088,0.999996804590397,20.0,36.47431522848262,29.185988066434593,838.671875,,0.509833032515071,5,071814_w_23-PA2-077,PA2,0
6.399491326704546,0.1036235311126452,4.328200467927086e-05,-59.197585966271305,289.17751933097776,1747.051,0.5478292978595776,1.302167177728463,0.0,0.0,0,0.0,0.0,2.446844648020486,1.6751896406655664,3.552713678800438e-14,3.552713678800438e-14,-0.09062809679306649,0.8622706367176673,0.05742184075143354,0.07981967278123468,-0.028849697189964083,0.006407439145360966,0.0,-9.996448114224198e-11,0.0,-9.996448114224198e-11,-378.83443795299996,0.9999981746172055,20.0,34.74696655206483,37.00643617479769,824.21875,,0.477318349652782,5,071814_w_23-PA3-001,PA3,1
6.334937099076703,0.05098339262595684,3.0730025516152165e-05,-21.90506506773793,319.39704327521224,1865.372,0.7976107287826871,3.193276077339246,0.0,0.0,0,0.0,0.0,2.423324102356719,1.8505268057057747,3.552713678800438e-14,3.552713678800438e-14,0.05107729581558344,0.9202685503020184,-0.35696362495004125,0.284572514221753,-0.004718920604639885,0.0014430962486102971,0.0,-9.996448114224198e-11,0.0,-9.996448114224198e-11,-138.76720935530216,0.9999987462571526,20.0,44.82623991222071,46.4129243411621,859.765625,,0.6423343277849941,5,071814_w_23-PA3-003,PA3,1
6.063123563565341,0.028918531205595482,3.3422369579822152e-06,58.44618870213778,265.57283626090856,1807.732,0.30997215079407403,0.9498942059740234,0.0,0.0,0,0.0,0.0,2.6857710089999354,1.3265802517100247,3.552713678800438e-14,3.552713678800438e-14,-0.37697120923110716,1.0965262142654835,0.03643741770354832,0.05316272327253956,0.020086579528452532,0.00799666218505299,0.0,-9.996448114224198e-11,0.0,-9.996448114224198e-11,354.366463920518,0.9999967739141361,25.0,76.33029732920332,83.57458162240104,999.0234375,,1.2709292471643328,5,071814_w_23-PA3-005,PA3,1
5.9680448203125005,0.12536454836131436,0.00012271466540934577,23.956261989275564,318.20450790508636,1886.121,0.5489745191676811,1.276855424806124,0.0,0.0,0,0.0,0.0,1.9936131573175462,1.918563542439596,3.552713678800438e-14,3.552713678800438e-14,0.9477074920436249,1.1054268426562024,-0.12711932639539864,0.12116052519841107,0.07285927962930627,0.010265234455094852,0.0,-9.996448114224198e-11,0.0,-9.996448114224198e-11,142.97204527914528,0.999998178425148,20.0,41.650133031515864,35.517888250038,825.78125,,0.5732316414286276,5,071814_w_23-PA3-009,PA3,1
5.850286641690342,0.017127134420397205,1.7841445189665986e-05,-2.9727402449715896,309.50406430614754,1857.7,0.3355452712970097,1.0619677106352237,0.0,0.0,0,0.0,0.0,2.5334306744795003,1.8054758424860697,3.552713678800438e-14,3.552713678800438e-14,0.9785385693056653,1.3752916764497185,-0.015758710716629293,0.13579123751310457,0.01433045993864592,0.008758214850364982,0.0,-9.996448114224198e-11,0.0,-9.996448114224198e-11,-17.391382544372565,0.9999970197850923,40.0,70.1767352469597,80.99465962454137,821.875,,0.9612750593537299,5,071814_w_23-PA3-011,PA3,1
5.975264689275568,0.06386687016094117,6.246619758164016e-05,-21.59712264739702,338.4244654450421,1846.925,0.35160216812836853,1.1515197969258286,0.0,0.0,0,0.0,0.0,1.8547895216169328,1.9247690914571949,3.552713678800438e-14,3.552713678800438e-14,0.9117513355064137,1.0982259977907705,0.06251311739719202,0.18601494613711972,0.02854342190803875,0.005231652334561596,0.0,-9.996448114224198e-11,0.0,-9.996448114224198e-11,-129.0485243449451,0.9999971558845578,0.0,23.109686652732876,23.032525546993682,804.0364583333334,,0.3096838397261506,5,071814_w_23-PA3-012,PA3,1
5.883051121093749,0.006483771797236994,-7.455191036337875e-06,-13.726494352201712,333.84289547988885,1876.246,0.3253340151054027,0.9991876314218802,0.0,0.0,0,0.0,0.0,2.7350500279860586,1.9958874279121632,3.552713678800438e-14,3.552713678800438e-14,-0.7082182881140768,1.082993009777824,0.4265712219149453,0.28055595814005285,-0.0019422745828302675,0.01044886664397613,0.0,-9.996448114224198e-11,0.0,-9.996448114224198e-11,-80.7536679874073,0.9999969262453977,0.0,17.534668505830812,27.05389525923978,787.7604166666666,,0.23021862674071175,5,071814_w_23-PA3-014,PA3,1
6.073839758167614,0.03057839345954711,2.704664956517849e-05,-15.33065371108666,364.27783225012246,1880.741,0.2352936311402784,0.8112087705954474,0.0,0.0,0,0.0,0.0,2.7058144578668637,2.0868347890393353,3.552713678800438e-14,3.552713678800438e-14,0.9648614039531467,1.258428995914413,0.15447768022398575,0.15532783483849452,0.012941019122519878,0.004846894775254071,0.0,-9.996448114224198e-11,0.0,-9.996448114224198e-11,-93.11593402909803,0.999995750009275,40.0,49.139631349254394,73.78574345698497,835.546875,,0.6843077481648329,5,071814_w_23-PA3-016,PA3,1
6.208955658380683,0.06589417834410458,3.680124693649541e-05,-4.282246750525572,297.2257002508429,1805.344,0.18476861104762696,0.6712030367862284,0.0,0.0,0,0.0,0.0,2.2316314210273536,1.8902464540677273,3.552713678800438e-14,3.552713678800438e-14,0.6802785923542238,0.7953375568616922,-0.2758524873753272,0.37316269817324077,-0.02396900428433585,0.004681265183848339,0.0,-9.996448114224198e-11,0.0,-9.996448114224198e-11,-26.588280192258043,0.9999945878546026,20.0,34.526698300124394,32.955186413119215,816.796875,,0.47002164877039837,5,071814_w_23-PA3-019,PA3,1
6.53718991796875,0.012914874251408949,-1.5669604937869852e-05,-50.19273206689631,379.74785441916515,1940.244,0.3017732642245094,0.9824781562988738,0.0,0.0,0,0.0,0.0,2.918661108124731,2.1766900840810806,3.552713678800438e-14,3.552713678800438e-14,-0.785380081748871,1.3002742428843066,0.48253124253379653,0.38265379632817365,-0.004873958024439946,0.00421850078875287,0.0,-9.996448114224198e-11,0.0,-9.996448114224198e-11,-328.11942202302134,0.9999966862648061,40.0,46.24000235059263,37.12479120574704,828.90625,,0.6388104410857827,5,071814_w_23-PA3-025,PA3,1
6.520872134943181,0.15454328375526266,0.00015995940771099996,-22.281657698970175,385.6331858607211,1965.936,0.47670202563720115,1.2240630477636842,0.0,0.0,0,0.0,0.0,1.8067937126236717,2.1701585364652356,3.552713678800438e-14,3.552713678800438e-14,0.9762389405522953,1.2315521018672861,-0.3160228812792951,0.2380259774386962,0.15489069845105052,0.0285686772085913,0.0,-9.996448114224198e-11,0.0,-9.996448114224198e-11,-145.2958408095568,0.9999979022579129,0.0,31.2347374838271,25.741268714635307,807.03125,,0.42012348211961326,5,071814_w_23-PA3-027,PA3,1
6.454396727627841,0.06003326797474893,2.7834713205040376e-05,-50.83727779584519,421.1602015944951,2014.629,0.37881940689377647,1.0748037743175376,0.0,0.0,0,0.0,0.0,2.6742210048643797,2.3000614243221946,3.552713678800438e-14,3.552713678800438e-14,0.6600618463410739,1.0949230510264827,-0.6299062201239143,0.5390579552644597,-0.02078198395283737,0.007465300952538124,0.0,-9.996448114224198e-11,0.0,-9.996448114224198e-11,-328.1239594470107,0.9999973602266885,40.0,55.26860623762118,45.583611096379116,790.625,,0.7282790214348709,5,071814_w_23-PA3-030,PA3,1
6.414520802911932,0.019838929315699718,-2.4329027337137742e-05,1.3666049774857874,357.07125293704854,1905.833,0.2223374083982219,0.8874603191446853,0.0,0.0,0,0.0,0.0,2.97823439182946,2.0152413792598405,3.552713678800438e-14,3.552713678800438e-14,-0.8305653308157155,1.371899882729397,0.07239787064488697,0.17455378225377693,0.028011828792409002,0.004645181499839295,0.0,-9.996448114224198e-11,0.0,-9.996448114224198e-11,8.766116057445576,0.9999955023515406,20.0,36.82560084954063,48.2069867780465,831.640625,,0.510427755314094,5,071814_w_23-PA3-031,PA3,1
6.378203668678978,0.01841096108105775,1.6686665507915567e-05,-103.91362190262784,297.5848903663756,1984.871,0.5168011507085372,1.3249670883833284,0.0,0.0,0,0.0,0.0,2.7251749760891837,1.8046258825856545,3.552713678800438e-14,3.552713678800438e-14,0.4709868382646432,0.9877437062010938,-0.1858463167008809,0.14948105995637195,-0.011907926526301434,0.0037260771496829687,0.0,-9.996448114224198e-11,0.0,-9.996448114224198e-11,-662.7822444450611,0.9999980650235324,40.0,90.83606214244911,70.67236468297075,907.03125,,1.3731857639242824,5,071814_w_23-PA3-044,PA3,1
5.385039307883523,0.013165473476056393,-1.6170284879622184e-05,60.38180409879262,307.208486834159,1945.969,0.092006872584126,0.3835595824666765,0.0,0.0,0,0.0,0.0,2.9448932209252607,1.9460169965544065,3.552713678800438e-14,3.552713678800438e-14,-0.8515424976789756,1.3975760696572044,-0.18712323137469564,0.25327704401301115,-0.0655360176371497,0.00966789151583482,0.0,-9.996448114224198e-11,0.0,-9.996448114224198e-11,325.1583885529207,0.9999891313648287,16.666666666666664,81.4759853063504,79.88655311637312,841.4713541666666,,1.1426617801292822,5,071814_w_23-PA3-059,PA3,1
5.426198470525568,0.014078000947737592,-1.715266081159496e-05,57.17713062379259,381.15745040454675,1906.65,0.15952600838756895,0.6590275645921784,0.0,0.0,0,0.0,0.0,2.9213629248354214,2.0795828650229478,3.552713678800438e-14,3.552713678800438e-14,-0.8066752487200907,1.28487825863956,-0.2914481036258054,0.18794379926802235,0.01000523760546614,0.00444504853018143,0.0,-9.996448114224198e-11,0.0,-9.996448114224198e-11,310.254458739864,0.9999937314689837,0.0,23.640075072090244,19.80279977443215,819.53125,,0.32289633388233996,5,071814_w_23-PA3-060,PA3,1
5.837768332741477,0.018033861222746653,-2.192686618923874e-05,110.61440492124645,295.67068471708365,1944.594,0.25259927411687527,0.8879074242298599,0.0,0.0,0,0.0,0.0,2.914010223868285,1.9472106165390746,3.552713678800438e-14,3.552713678800438e-14,-0.7928727541576126,1.3490910304627537,0.04356512194695235,0.17453135187181115,3.2910930643373706e-05,0.021636731485909184,0.0,-9.996448114224198e-11,0.0,-9.996448114224198e-11,645.7412701942955,0.9999960411761093,20.0,47.511547090508365,39.523645204781374,884.765625,,0.7006097180647787,5,071814_w_23-PA3-063,PA3,1
6.2448419218749995,0.03928376916836573,-4.8286017669104215e-05,-53.387822483664756,409.6807421797101,1974.645,0.6097231331831158,1.4198733088374353,0.0,0.0,0,0.0,0.0,2.9761271931788214,1.9936384180336217,3.552713678800438e-14,3.552713678800438e-14,-0.8677481052553516,1.4727105858779364,-0.13031490742073215,0.15092923521247728,0.01615643368020156,0.006311814077477853,0.0,-9.996448114224198e-11,0.0,-9.996448114224198e-11,-333.3985119636103,0.9999983599140241,20.0,70.2378618607481,80.58386411232361,842.96875,,0.9868053642303213,5,071814_w_23-PA3-067,PA3,1
5.401941194602273,0.00851832439699514,-3.2249551968221807e-06,-20.555550061967324,460.4226324089481,1982.486,0.4199827845237682,1.0531602154415223,0.0,0.0,0,0.0,0.0,2.885824112722445,2.260560003540244,3.552713678800438e-14,3.552713678800438e-14,-0.5876543662893355,0.9621999019498704,0.4202664260432826,0.3656066595934655,0.020079977857797384,0.009172861702214184,0.0,-9.996448114224198e-11,0.0,-9.996448114224198e-11,-111.03987265745059,0.9999976189556911,0.0,23.559254066044566,19.006625977660725,767.1875,,0.30123941702076173,5,071814_w_23-PA3-078,PA3,1
5.338213789772727,0.024312727174867193,-2.987841427449342e-05,26.103007593359383,366.4132015616872,2022.924,0.20425820184089927,0.6390551302390047,0.0,0.0,0,0.0,0.0,2.9765975795999635,2.077795311639055,3.552713678800438e-14,3.552713678800438e-14,-0.84971565050567,1.4226548563312331,-0.4824250756337879,0.2985160303370693,0.01171598625793593,0.012674028020522053,0.0,-9.996448114224198e-11,0.0,-9.996448114224198e-11,139.34343508941325,0.9999951042597298,20.0,50.91254061616045,48.127790097692,911.71875,,0.7736319539244636,5,071814_w_23-PA3-080,PA3,1
1.2201406360085227,0.009670827320880062,-1.1888726503334602e-05,8.027672797329545,224.9372634462994,1552.283,0.03575100954221311,0.16044289861008124,0.0,0.0,0,0.0,0.0,2.9572523869938445,1.5637881202621897,3.552713678800438e-14,3.552713678800438e-14,0.9970615670621163,1.7225342075517294,-0.017284219586423646,0.03641326146217664,-0.010610942689501133,0.008985866622380772,0.0,-9.996448114224198e-11,0.0,-9.996448114224198e-11,9.794889792601989,0.9999720295442744,20.0,40.840866535793914,36.70628112760471,828.515625,,0.5639549272840046,6,071911_w_24-PA2-003,PA2,0
2.7286766154119317,0.039384140614237714,-4.8410310500613243e-05,-2.829035015944602,221.37132256232735,1506.049,0.07653599423966058,0.2861196382163976,0.0,0.0,0,0.0,0.0,2.9695318154054955,1.5777979587806412,3.552713678800438e-14,3.552713678800438e-14,0.996989548294398,1.8049039981053956,0.02539973692164244,0.033779145270598256,-0.041111008627442616,0.009798532782806362,0.0,-9.996448114224198e-11,0.0,-9.996448114224198e-11,-7.719521692189557,0.9999869344228901,16.666666666666664,36.633461453251655,30.023540162132573,817.3828125,,0.49905935638300164,6,071911_w_24-PA2-010,PA2,0
3.6284458046875003,0.10863672553219816,-0.00013356058041725778,7.846790201629971,235.94025596777857,1517.983,0.19221990144540027,0.6350496743877587,0.0,0.0,0,0.0,0.0,2.9925474154393905,1.632267354310233,3.552713678800438e-14,3.552713678800438e-14,0.9981326856945515,1.731232528518936,-0.06121572090310436,0.025223626516497476,-0.007965071626049423,0.007108929930337122,0.0,-9.996448114224198e-11,0.0,-9.996448114224198e-11,28.471652987367253,0.9999947976521154,16.666666666666664,24.720730206713657,17.929077581310946,770.8333333333334,,0.31759271079307994,6,071911_w_24-PA2-012,PA2,0
2.9241830990767044,0.04565151853400619,-4.0523672589703026e-05,8.259668818051136,226.61005793128783,1592.704,0.14423827210026022,0.44509424238234835,0.0,0.0,0,0.0,0.0,2.8923959045205243,1.5901563366609048,3.552713678800438e-14,3.552713678800438e-14,0.6646875177928657,1.4991529293230603,-0.10123764630248064,0.04471052266629287,-0.01531810372221237,0.010908465327862073,0.0,-9.996448114224198e-11,0.0,-9.996448114224198e-11,24.15278396171599,0.9999930670753849,20.0,53.914741179071335,45.09985124178626,832.421875,,0.7479968228948015,6,071911_w_24-PA2-013,PA2,0
2.7111896658380683,0.06208982308771226,-7.635403643018528e-05,6.771577710120737,223.30937793997086,1502.598,0.2153832255058511,0.5897621349738146,0.0,0.0,0,0.0,0.0,2.99160217919324,1.6148655731094324,3.552713678800438e-14,3.552713678800438e-14,0.9976223633418517,1.7488874394154017,-0.0347154666098515,0.03490458258081861,-0.040154114128396506,0.010058372727098181,0.0,-9.996448114224198e-11,0.0,-9.996448114224198e-11,18.359031509098752,0.9999953571344529,0.0,12.881744099875897,8.69085760206523,785.9375,,0.1687374272293481,6,071911_w_24-PA2-016,PA2,0
2.21589797265625,0.02841124941891225,-3.4930335683529766e-05,3.96046340487571,221.31967793307987,1491.586,0.1848677645644453,0.5769110395284585,0.0,0.0,0,0.0,0.0,2.990784476203991,1.6332018628514262,3.552713678800438e-14,3.552713678800438e-14,0.9940239088486572,1.846923957691953,0.0008793067028977815,0.046790805271478636,0.004116297016290981,0.008126105009567243,0.0,-9.996448114224198e-11,0.0,-9.996448114224198e-11,8.775982829643356,0.9999945907573821,0.0,31.44773864864183,22.67644574015624,811.328125,,0.4252405753288452,6,071911_w_24-PA2-017,PA2,0
3.6336451235795453,0.11069272840308225,-0.00013614933415109702,10.531514145348012,227.0879321446181,1551.731,0.2721452071381514,0.7567823935898359,0.0,0.0,0,0.0,0.0,2.9940769741136286,1.593066899780031,3.552713678800438e-14,3.552713678800438e-14,0.9969741559667844,1.7347397400423068,-0.010179990785627965,0.03562891635719905,-0.007987223185207665,0.006817198017400047,0.0,-9.996448114224198e-11,0.0,-9.996448114224198e-11,38.26778501815281,0.9999963255045496,20.0,38.70687730977815,38.34795686732785,833.984375,,0.5380155078567893,6,071911_w_24-PA2-019,PA2,0
2.761847245028409,0.05552049593575363,-6.828458657062932e-05,2.3927286042436084,211.8500436025362,1529.634,0.40602459791502094,1.0430236364433572,0.0,0.0,0,0.0,0.0,2.993746511187478,1.5636161461226574,3.552713678800438e-14,3.552713678800438e-14,0.9971287872879138,1.726876720199071,-0.1126251435459163,0.03794692636659806,-0.025503274289991197,0.008273188779959199,0.0,-9.996448114224198e-11,0.0,-9.996448114224198e-11,6.60835090373088,0.9999975371010963,20.0,35.305131801807065,34.46034327729575,858.203125,,0.5049829007129155,6,071911_w_24-PA2-021,PA2,0
2.0405133522727272,0.023414261067116474,-2.8776820267504365e-05,0.653834467223011,218.71877374452862,1486.65,0.4068798139175789,1.0904758337306981,0.0,0.0,0,0.0,0.0,2.9908297131067023,1.508801153146662,3.552713678800438e-14,3.552713678800438e-14,0.9984561831088559,1.7611449812279163,-0.044186583197365535,0.04160872228307686,-0.010671915827047348,0.010644497054214264,0.0,-9.996448114224198e-11,0.0,-9.996448114224198e-11,1.3341579605446787,0.9999975422778224,16.666666666666664,41.2197302527488,67.10815475947281,791.3411458333334,,0.5436478030026668,6,071911_w_24-PA2-023,PA2,0
2.279544633877841,0.02326762636298133,-2.856639606700778e-05,-3.00199225418679,224.61707601086607,1456.412,1.3658205632051619,2.669776101837826,0.0,0.0,0,0.0,0.0,2.985863193888278,1.5827320058434875,3.552713678800438e-14,3.552713678800438e-14,0.9885373236185369,1.8300518903914247,-0.1212701862252192,0.03557787935633418,-0.07942049429917433,0.01090037815899982,0.0,-9.996448114224198e-11,0.0,-9.996448114224198e-11,-6.84317533397434,0.9999992678399383,0.0,22.027925281049505,16.54593929326329,737.9557291666666,,0.2709272247483561,6,071911_w_24-PA2-029,PA2,0
2.3438441097301137,0.01966924802799777,-2.4168688389925263e-05,2.8061018906249986,215.9292320569875,1449.557,0.27382713727511043,0.8701765862216043,0.0,0.0,0,0.0,0.0,2.983800563997747,1.5506042663177082,3.552713678800438e-14,3.552713678800438e-14,0.998590631827708,1.7575960463245757,0.03590735336034891,0.03805989248123466,0.018377114621697613,0.009144367683256207,0.0,-9.996448114224198e-11,0.0,-9.996448114224198e-11,6.577065387643938,0.9999963480743436,0.0,18.774398188590492,14.585367696645642,749.6744791666666,,0.23457811711027263,6,071911_w_24-PA2-042,PA2,0
2.379125088068182,0.01674314856696389,-2.0382301431438426e-05,-2.6847313976562517,217.5017150121162,1464.044,1.0206338250310407,2.3295641028708376,0.0,0.0,0,0.0,0.0,2.9435932895055803,1.5537038049219054,3.552713678800438e-14,3.552713678800438e-14,0.9725469491948919,1.7736985397328593,-0.02350379885919189,0.0332310314937407,0.02903582693419907,0.012690019395152135,0.0,-9.996448114224198e-11,0.0,-9.996448114224198e-11,-6.387311822888343,0.9999990202176376,16.666666666666664,40.41600387396836,34.35316837511286,814.1276041666666,,0.5483963999642656,6,071911_w_24-PA2-046,PA2,0
